,Time [sec],Motor angle [rad],Motor speed [rad/sec],Linear encoder [mm],Joint angle [rad],Motor current [units],Motor torque [Nm],Force sensor TSA [N],Force sensor handle [N]
0,1.5203999282675795e-05,0.0,0.0,-0.07055555555555555,-0.002239858906525573,0,0.0,19.79499554852336,-6.804138071472016
1,0.0031397169987030793,0.0,0.0,-0.07055555555555555,-0.002239858906525573,2,0.0009534176281700763,20.162695565691415,-6.892805151195333
2,0.00444282499847759,0.004218447166685513,1.9547687622336491,-0.07055555555555555,-0.002239858906525573,33,0.01573139086480626,19.703070544231352,-6.626803912025384
3,0.005564416998822708,0.011121360712170958,4.956735075663896,-0.07055555555555555,-0.002239858906525573,45,0.02145189663382672,19.611145539939336,-6.804138071472016
4,0.00669471399851318,0.021475731030399015,8.09832772925369,-0.07055555555555555,-0.002239858906525573,34,0.016208099678891297,19.611145539939336,-7.070139310641965
5,0.0078049519997875905,0.034514567727427004,10.75122819228507,-0.07055555555555555,-0.002239858906525573,27,0.01287113798029603,19.24344552277129,-6.7154709917487
6,0.00907546199960052,0.05062136600022615,12.688543661998775,-0.07055555555555555,-0.002239858906525573,18,0.008580758653530687,18.87574550560324,-6.892805151195333
7,0.010182520998569089,0.06557767868211117,13.299408900196791,-0.07055555555555555,-0.002239858906525573,19,0.009057467467615725,18.96767050989525,-6.626803912025384
8,0.011307052998745348,0.07976700097005329,12.845623294678266,-0.07055555555555555,-0.002239858906525573,-2,-0.0009534176281700763,18.87574550560324,-7.070139310641965
9,0.012450874999558437,0.09280583766708128,11.903145498601328,-0.07055555555555555,-0.002239858906525573,16,0.0076273410253606105,18.783820501311226,-6.892805151195333
10,0.013556724999943981,0.10584467436410927,11.519173063162574,-0.07055555555555555,-0.002239858906525573,2,0.0009534176281700763,18.04842046697513,-6.892805151195333
11,0.014679871999760508,0.11965050145508005,11.885692206081384,-0.07055555555555555,-0.002239858906525573,7,0.003336961698595267,17.680720449807083,-6.892805151195333
12,0.015822219998881337,0.13460681413696496,12.845623294678266,-0.07055555555555555,-0.002239858906525573,-2,-0.0009534176281700763,17.588795445515068,-6.804138071472016
13,0.01707309699850157,0.15186409800067846,13.82300767579509,-0.07055555555555555,-0.002239858906525573,-9,-0.0042903793267653435,17.77264545409909,-7.070139310641965
14,0.01819199499914248,0.16682041068256348,13.683381335635543,-0.07055555555555555,-0.002239858906525573,-16,-0.0076273410253606105,18.04842046697513,-6.804138071472016
15,0.019318065998959355,0.1802427425765628,12.54891732183923,-0.08819444444444444,-0.0027998236331569664,-17,-0.008104049839445649,17.956495462683122,-6.892805151195333
16,0.020480492999922717,0.1917475984857051,10.768681484805013,-0.08819444444444444,-0.0027998236331569664,-10,-0.004767088140850382,17.680720449807083,-6.626803912025384
17,0.021699176999391057,0.20210196880393316,8.74409955249159,-0.08819444444444444,-0.0027998236331569664,2,0.0009534176281700763,18.232270475559154,-6.892805151195333
18,0.02295429099831381,0.21015536794033285,6.946410422937432,-0.08819444444444444,-0.0027998236331569664,17,0.008104049839445649,18.04842046697513,-6.981472230918649
19,0.024186546999771963,0.21744177668278963,5.98647933434055,-0.08819444444444444,-0.0027998236331569664,22,0.01048759390987084,18.41612048414318,-6.626803912025384
20,0.025575399999070214,0.22511168062221787,5.654866776461628,-0.08819444444444444,-0.0027998236331569664,26,0.012394429166210991,18.599970492727202,-6.892805151195333
21,0.026821843999641715,0.232781584561646,5.742133239061344,-0.08819444444444444,-0.0027998236331569664,35,0.016684808492976336,18.232270475559154,-6.892805151195333
22,0.028062232999218395,0.24121847889501702,6.440264939859076,-0.08819444444444444,-0.0027998236331569664,30,0.014301264422551144,18.140345471267146,-6.626803912025384
23,0.02918795999903523,0.24965537322838804,7.225663103256524,-0.08819444444444444,-0.0027998236331569664,17,0.008104049839445649,18.232270475559154,-6.626803912025384
24,0.030311036000057356,0.2592427531526733,8.185594191853406,-0.08819444444444444,-0.0027998236331569664,36,0.017161517307061374,18.508045488435194,-6.892805151195333
25,0.03156806999868422,0.2715145994557585,9.599310885968812,-0.08819444444444444,-0.0027998236331569664,18,0.008580758653530687,18.783820501311226,-6.804138071472016
26,0.0326729799999157,0.2845534361527864,10.8035880698449,-0.08819444444444444,-0.0027998236331569664,28,0.013347846794381068,18.41612048414318,-6.981472230918649
27,0.033811476998380385,0.2987427584407286,12.356931104119854,-0.08819444444444444,-0.0027998236331569664,8,0.0038136705126803052,18.41612048414318,-6.804138071472016
28,0.03493885199895885,0.314082566319585,13.316862192716734,-0.08819444444444444,-0.0027998236331569664,16,0.0076273410253606105,18.508045488435194,-6.804138071472016
29,0.036058914998648106,0.32865538380449866,13.299408900196791,-0.08819444444444444,-0.0027998236331569664,11,0.00524379695493542,18.599970492727202,-6.892805151195333
30,0.03719327299950237,0.3428447060924408,12.81071670963838,-0.08819444444444444,-0.0027998236331569664,-3,-0.0014301264422551144,18.783820501311226,-6.804138071472016
31,0.038296108999929857,0.35588354278946877,12.02531854624093,-0.08819444444444444,-0.0027998236331569664,13,0.006197214583105496,18.32419547985117,-6.892805151195333
32,0.039436682000086876,0.3677718938955824,10.890854532444616,-0.08819444444444444,-0.0027998236331569664,-3,-0.0014301264422551144,18.41612048414318,-6.981472230918649
33,0.04066794399841456,0.37889325460775336,9.285151620609833,-0.08819444444444444,-0.0027998236331569664,8,0.0038136705126803052,18.508045488435194,-6.892805151195333
34,0.04180710099899443,0.38771364413809584,8.168140899333462,-0.08819444444444444,-0.0027998236331569664,11,0.00524379695493542,18.691895497019217,-6.626803912025384
35,0.04293185799906496,0.39615053847146686,7.47000919853573,-0.08819444444444444,-0.0027998236331569664,12,0.005720505769020457,18.96767050989525,-6.804138071472016
36,0.04404952499862702,0.40420393760786644,7.103490055616922,-0.08819444444444444,-0.0027998236331569664,24,0.011441011538040915,18.87574550560324,-6.892805151195333
37,0.045195148999482626,0.412257336744266,7.225663103256524,-0.08819444444444444,-0.0027998236331569664,16,0.0076273410253606105,18.691895497019217,-7.070139310641965
38,0.046336293999047484,0.42146122147157994,7.8016217564146535,-0.08819444444444444,-0.0027998236331569664,29,0.013824555608466106,18.96767050989525,-6.892805151195333
39,0.04757725699892035,0.4325825821837508,8.604473212332044,-0.08819444444444444,-0.0027998236331569664,26,0.012394429166210991,19.059595514187265,-6.7154709917487
40,0.04882800399900589,0.4452379236838073,9.651670763528642,-0.08819444444444444,-0.0027998236331569664,20,0.009534176281700764,19.059595514187265,-6.804138071472016
41,0.05006824599877291,0.4590437507747781,10.821041362364843,-0.08819444444444444,-0.0027998236331569664,16,0.0076273410253606105,18.783820501311226,-6.981472230918649
42,0.051308877998963,0.47323307306272033,11.449359893082802,-0.08819444444444444,-0.0027998236331569664,12,0.005720505769020457,18.96767050989525,-6.7154709917487
43,0.05244026199943619,0.4870389001536911,11.850785621041497,-0.08819444444444444,-0.0027998236331569664,9,0.0042903793267653435,19.335370527063304,-6.892805151195333
44,0.05356146599842759,0.5008447272446618,12.269664641520137,-0.08819444444444444,-0.0027998236331569664,8,0.0038136705126803052,19.15152051847928,-6.7154709917487
45,0.05466281899862224,0.5142670591386612,12.164944886400477,-0.08819444444444444,-0.0027998236331569664,3,0.0014301264422551144,18.87574550560324,-6.892805151195333
46,0.05580923199886456,0.5276893910326605,11.920598791121272,-0.08819444444444444,-0.0027998236331569664,7,0.003336961698595267,19.15152051847928,-6.892805151195333
47,0.05707472599897301,0.5418787133206028,11.501719770642632,-0.08819444444444444,-0.0027998236331569664,6,0.0028602528845102287,18.96767050989525,-6.892805151195333
48,0.058369166999909794,0.5545340548206593,10.402162341886203,-0.08819444444444444,-0.0027998236331569664,9,0.0042903793267653435,19.427295531355313,-6.626803912025384
49,0.05956136299937498,0.5652719203358587,9.16297857297023,-0.08819444444444444,-0.0027998236331569664,13,0.006197214583105496,19.611145539939336,-6.804138071472016
50,0.06065973899967503,0.5744758050631726,8.482300164692441,-0.08819444444444444,-0.0027998236331569664,14,0.006673923397190534,19.519220535647328,-6.892805151195333
51,0.061782355998730054,0.583296194593515,7.714355293814936,-0.08819444444444444,-0.0027998236331569664,17,0.008104049839445649,19.519220535647328,-6.804138071472016
52,0.0629077879984834,0.5909660985329432,7.260569688296411,-0.08819444444444444,-0.0027998236331569664,22,0.01048759390987084,19.79499554852336,-6.804138071472016
53,0.06404792899957101,0.5990194976693428,6.998770300497261,-0.08819444444444444,-0.0027998236331569664,25,0.011917720352125953,19.886920552815376,-6.626803912025384
54,0.06516241099961917,0.606689401608771,6.911503837897545,-0.08819444444444444,-0.0027998236331569664,27,0.01287113798029603,19.886920552815376,-6.892805151195333
55,0.06628561799880117,0.6155097911391135,7.452555906015787,-0.08819444444444444,-0.0027998236331569664,32,0.015254682050721221,20.254620569983423,-6.626803912025384
56,0.06742025299899979,0.6250971710633988,8.09832772925369,-0.08819444444444444,-0.0027998236331569664,29,0.013824555608466106,19.978845557107384,-6.626803912025384
57,0.06856484999843815,0.6354515413816268,8.779006137531477,-0.08819444444444444,-0.0027998236331569664,30,0.014301264422551144,19.978845557107384,-6.892805151195333
58,0.06966576400009217,0.6469563972907691,10.018189906447452,-0.08819444444444444,-0.0027998236331569664,28,0.013347846794381068,20.0707705613994,-7.070139310641965
59,0.07080029799908516,0.6607622243817399,11.344640137963141,-0.08819444444444444,-0.0027998236331569664,14,0.006673923397190534,20.162695565691415,-6.804138071472016
60,0.07206178299929888,0.677636013048482,13.299408900196791,-0.08819444444444444,-0.0027998236331569664,13,0.006197214583105496,20.62232058715147,-6.538136832302067
61,0.07335873199917842,0.6956602873061383,14.172073526193955,-0.08819444444444444,-0.0027998236331569664,8,0.0038136705126803052,20.714245591443486,-6.626803912025384
62,0.07457450299989432,0.7129175711698517,14.014993893514466,-0.08819444444444444,-0.0027998236331569664,5,0.002383544070425191,20.806170595735495,-6.804138071472016
63,0.07579634399917268,0.7282573790487081,12.81071670963838,-0.08819444444444444,-0.0027998236331569664,6,0.0028602528845102287,21.081945608611534,-6.449469752578751
64,0.07693227199888497,0.7397622349578504,11.047934165124106,-0.08819444444444444,-0.0027998236331569664,6,0.0028602528845102287,21.265795617195558,-6.7154709917487
65,0.07816743299918016,0.7505001004730499,9.05825881785057,-0.08819444444444444,-0.0027998236331569664,8,0.0038136705126803052,21.81734564294763,-6.626803912025384
66,0.07942806399842084,0.7593204900033923,7.417649320975901,-0.08819444444444444,-0.0027998236331569664,13,0.006197214583105496,21.81734564294763,-6.892805151195333
67,0.08066950099964743,0.7669903939428206,6.230825429619756,-0.08819444444444444,-0.0027998236331569664,21,0.010010885095785802,21.72542063865562,-6.626803912025384
68,0.08190687199930835,0.7742768026852773,5.846852994181004,-0.08819444444444444,-0.0027998236331569664,28,0.013347846794381068,21.81734564294763,-7.070139310641965
69,0.0830325629995059,0.7811797162307628,6.14355896702004,-0.08819444444444444,-0.0027998236331569664,31,0.014777973236636183,22.001195651531653,-6.804138071472016
70,0.08416791799936618,0.7892331153671623,6.684611035138282,-0.08819444444444444,-0.0027998236331569664,33,0.01573139086480626,22.460820672991716,-6.7154709917487
71,0.0852759329991386,0.7988204952914476,7.993607974134029,-0.08819444444444444,-0.0027998236331569664,38,0.01811493493523145,22.368895668699707,-6.804138071472016
72,0.08642356499876769,0.8103253512005899,9.634217471008698,-0.08819444444444444,-0.0027998236331569664,27,0.01287113798029603,22.276970664407692,-6.892805151195333
73,0.08755751599892392,0.8237476830945893,11.257373675363425,-0.08819444444444444,-0.0027998236331569664,27,0.01287113798029603,22.736595685867755,-6.892805151195333
74,0.08865037599935022,0.8387039957764744,12.723450247038663,-0.08819444444444444,-0.0027998236331569664,16,0.0076273410253606105,22.92044569445178,-6.892805151195333
75,0.08978988799935905,0.8544272988523021,13.840460968315034,-0.08819444444444444,-0.0027998236331569664,9,0.0042903793267653435,23.563920724495865,-6.7154709917487
76,0.09091369699854113,0.8697671067311585,13.962634015954636,-0.08819444444444444,-0.0027998236331569664,21,0.010010885095785802,23.19622070732781,-6.804138071472016
77,0.09203384600004938,0.8839564290191007,13.142329267517301,-0.08819444444444444,-0.0027998236331569664,1,0.00047670881408503815,23.839695737371898,-7.070139310641965
78,0.0931580809992738,0.8969952657161286,11.728612573401895,-0.08819444444444444,-0.0027998236331569664,11,0.00524379695493542,23.839695737371898,-6.626803912025384
79,0.09428527499949269,0.9081166264282996,10.471975511965978,-0.08819444444444444,-0.0027998236331569664,21,0.010010885095785802,24.02354574595592,-6.7154709917487
80,0.09557916099947761,0.9192379871404704,9.285151620609833,-0.08819444444444444,-0.0027998236331569664,18,0.008580758653530687,24.29932075883196,-6.892805151195333
81,0.09681134399943403,0.9292088622617272,8.168140899333462,-0.08819444444444444,-0.0027998236331569664,10,0.004767088140850382,24.29932075883196,-6.7154709917487
82,0.09803429899875482,0.9387962421860123,7.644542123735164,-0.08819444444444444,-0.0027998236331569664,12,0.005720505769020457,24.115470750247937,-6.981472230918649
83,0.09917176199996902,0.9472331365193833,7.592182246175334,-0.08819444444444444,-0.0027998236331569664,34,0.016208099678891297,24.483170767415984,-6.804138071472016
84,0.1004254259987647,0.9579710020345829,8.168140899333462,-0.08819444444444444,-0.0027998236331569664,35,0.016684808492976336,24.207395754539945,-6.804138071472016
85,0.10165830400001141,0.9690923627467538,8.901179185171081,-0.08819444444444444,-0.0027998236331569664,29,0.013824555608466106,24.483170767415984,-6.892805151195333
86,0.1027823599997646,0.9798302282619533,9.512044423369096,-0.08819444444444444,-0.0027998236331569664,14,0.006673923397190534,24.758945780292024,-6.892805151195333
87,0.10390636000011,0.991718579368067,10.018189906447452,-0.08819444444444444,-0.0027998236331569664,31,0.014777973236636183,24.115470750247937,-6.804138071472016
88,0.10503994799910288,1.0036069304741808,10.48942880448592,-0.08819444444444444,-0.0027998236331569664,13,0.006197214583105496,24.667020776000008,-6.804138071472016
89,0.10618352599885839,1.0154952815802945,10.75122819228507,-0.08819444444444444,-0.0027998236331569664,21,0.010010885095785802,24.02354574595592,-7.247473470088598
90,0.10741459499877237,1.0293011086712651,10.96066770252439,-0.08819444444444444,-0.0027998236331569664,27,0.01287113798029603,24.115470750247937,-6.626803912025384
91,0.1085597309993318,1.0419564501713217,11.047934165124106,-0.08819444444444444,-0.0027998236331569664,5,0.002383544070425191,23.839695737371898,-6.892805151195333
92,0.10966635899967514,1.054228296474407,10.96066770252439,-0.08819444444444444,-0.0027998236331569664,16,0.0076273410253606105,23.931620741663913,-6.981472230918649
93,0.11078501099837013,1.0657331523835492,10.663961729685354,-0.08819444444444444,-0.0027998236331569664,14,0.006673923397190534,23.931620741663913,-6.892805151195333
94,0.1119052849990112,1.0772380082926916,10.018189906447452,-0.08819444444444444,-0.0027998236331569664,9,0.0042903793267653435,23.931620741663913,-6.804138071472016
95,0.11303424499965331,1.087975873807891,10.035643198967396,-0.08819444444444444,-0.0027998236331569664,26,0.012394429166210991,23.931620741663913,-7.070139310641965
96,0.11417049199917528,1.0975632537321762,8.674286382411818,-0.08819444444444444,-0.0027998236331569664,5,0.002383544070425191,24.29932075883196,-6.804138071472016
97,0.11545971399937116,1.1090681096413186,8.517206749732328,-0.08819444444444444,-0.0027998236331569664,16,0.0076273410253606105,24.29932075883196,-6.626803912025384
98,0.11666178399900673,1.1198059751565181,9.16297857297023,-0.08819444444444444,-0.0027998236331569664,16,0.0076273410253606105,24.483170767415984,-6.892805151195333
99,0.11779266899975482,1.1286263646868604,7.853981633974483,-0.08819444444444444,-0.0027998236331569664,34,0.016208099678891297,24.850870784584032,-7.070139310641965
100,0.11892583099870535,1.1378302494141743,8.028514559173916,-0.08819444444444444,-0.0027998236331569664,13,0.006197214583105496,24.850870784584032,-6.804138071472016
101,0.12017490799917141,1.1489516101263453,8.901179185171081,-0.08819444444444444,-0.0027998236331569664,19,0.009057467467615725,24.850870784584032,-6.804138071472016
102,0.1214869119994546,1.160839961232459,9.093165402890458,-0.08819444444444444,-0.0027998236331569664,27,0.01287113798029603,25.12664579746007,-6.626803912025384
103,0.12290744299934886,1.1765632643082868,10.48942880448592,-0.08819444444444444,-0.0027998236331569664,28,0.013347846794381068,24.942795788876047,-6.804138071472016
104,0.12427640899841208,1.1911360817932004,11.152653920243766,-0.08819444444444444,-0.0027998236331569664,16,0.0076273410253606105,24.575095771708,-6.626803912025384
105,0.1261672329983412,1.2129953080205707,12.374384396639796,-0.08819444444444444,-0.0027998236331569664,15,0.007150632211275572,24.758945780292024,-6.892805151195333
106,0.12779896699976234,1.2363885150358267,12.4965574442794,-0.08819444444444444,-0.0027998236331569664,10,0.004767088140850382,24.758945780292024,-6.626803912025384
107,0.12951190499916265,1.252495313308626,11.152653920243766,-0.08819444444444444,-0.0027998236331569664,12,0.005720505769020457,25.21857080175208,-6.538136832302067
108,0.13137018699853797,1.2689856067783967,8.866272600131195,-0.08819444444444444,-0.0027998236331569664,19,0.009057467467615725,25.678195823212143,-6.804138071472016
109,0.13272918199982087,1.2797234722935962,7.278022980816354,-0.08819444444444444,-0.0027998236331569664,19,0.009057467467615725,25.770120827504158,-6.892805151195333
110,0.1340135749996989,1.2885438618239387,6.562437987498679,-0.08819444444444444,-0.0027998236331569664,28,0.013347846794381068,25.953970836088182,-6.981472230918649
111,0.13558555700001307,1.2981312417482238,6.754424205218055,-0.08819444444444444,-0.0027998236331569664,43,0.020498479005656642,26.32167085325623,-6.892805151195333
112,0.13684636199832312,1.3081021168694804,7.52236907609556,-0.08819444444444444,-0.0027998236331569664,35,0.016684808492976336,26.32167085325623,-6.892805151195333
113,0.13858250099838187,1.3249759055362225,9.442231253289323,-0.08819444444444444,-0.0027998236331569664,33,0.01573139086480626,26.59744586613227,-6.981472230918649
114,0.13992691399835167,1.3430001797938789,11.850785621041497,-0.08819444444444444,-0.0027998236331569664,17,0.008104049839445649,26.59744586613227,-6.804138071472016
115,0.14126907599893457,1.3625584348394209,13.945180723434692,-0.08819444444444444,-0.0027998236331569664,9,0.0042903793267653435,26.965145883300316,-6.981472230918649
116,0.1424148169990076,1.379432223506163,14.748032179352085,-0.08819444444444444,-0.0027998236331569664,5,0.002383544070425191,27.057070887592324,-6.981472230918649
117,0.1437284229996294,1.3970730025668476,14.468779499032992,-0.08819444444444444,-0.0027998236331569664,4,0.0019068352563401526,27.240920896176355,-6.892805151195333
118,0.14475097200011078,1.41126232485479,13.264502315156905,-0.08819444444444444,-0.0027998236331569664,3,0.0014301264422551144,27.97632093051245,-6.804138071472016
