,Time [sec],Motor angle [rad],Motor speed [rad/sec],Linear encoder [mm],Joint angle [rad],Motor current [units],Motor torque [Nm],Force sensor TSA [N],Force sensor handle [N]
0,1.661800001784286e-05,0.0,0.0,-0.07055555555555555,-0.002239858906525573,-39,-0.01859164374931649,26.32167085325623,-6.892805151195333
1,0.0013491900000417445,0.0,0.0,-0.07055555555555555,-0.002239858906525573,-4,-0.0019068352563401526,26.229745848964214,-6.892805151195333
2,0.0024712599999929807,-0.0003834951969714506,-0.08726646259971647,-0.07055555555555555,-0.002239858906525573,7,0.003336961698595267,26.32167085325623,-7.247473470088598
3,0.0035926330000393136,-0.0003834951969714506,-0.2792526803190927,-0.07055555555555555,-0.002239858906525573,38,0.01811493493523145,26.229745848964214,-7.158806390365282
4,0.004820361000042794,0.0034514567727427226,1.8675022996339325,-0.07055555555555555,-0.002239858906525573,44,0.02097518781974168,26.04589584038019,-7.158806390365282
5,0.0059499139999843464,0.010737865515199507,5.201081170943102,-0.07055555555555555,-0.002239858906525573,47,0.022405314261996795,25.678195823212143,-7.336140549811914
6,0.007218208000040249,0.022626216621313255,8.604473212332044,-0.07055555555555555,-0.002239858906525573,36,0.017161517307061374,25.21857080175208,-6.981472230918649
7,0.008481626000047982,0.037199034106226825,11.274826967883369,-0.07055555555555555,-0.002239858906525573,18,0.008580758653530687,24.850870784584032,-7.070139310641965
8,0.009732675999998719,0.054456317969940216,13.177235852557189,-0.07055555555555555,-0.002239858906525573,13,0.006197214583105496,24.483170767415984,-6.981472230918649
9,0.010969831000011254,0.07248059222759651,14.206980111233843,-0.07055555555555555,-0.002239858906525573,7,0.003336961698595267,24.850870784584032,-7.247473470088598
10,0.012211933999992652,0.09088836168222425,14.678219009272311,-0.07055555555555555,-0.002239858906525573,-2,-0.0009534176281700763,24.29932075883196,-6.981472230918649
11,0.013484087000051659,0.10852914074290909,14.34660645139339,-0.07055555555555555,-0.002239858906525573,-2,-0.0009534176281700763,24.758945780292024,-7.158806390365282
12,0.01472103900005095,0.12616991980359393,14.172073526193955,-0.07055555555555555,-0.002239858906525573,-3,-0.0014301264422551144,24.483170767415984,-6.892805151195333
13,0.01594647399997484,0.1422767180763932,13.264502315156905,-0.07055555555555555,-0.002239858906525573,-16,-0.0076273410253606105,24.758945780292024,-6.981472230918649
14,0.017960652000056143,0.1637524491067922,10.663961729685354,-0.07055555555555555,-0.002239858906525573,1,0.00047670881408503815,24.575095771708,-6.981472230918649
15,0.01919903299994985,0.17487380981896306,9.250245035569947,-0.07055555555555555,-0.002239858906525573,2,0.0009534176281700763,24.667020776000008,-7.158806390365282
16,0.020340046000001166,0.18331070415233408,8.04596785169386,-0.07055555555555555,-0.002239858906525573,5,0.002383544070425191,25.034720793168056,-6.981472230918649
17,0.021448896000038076,0.19098060809176232,6.998770300497261,-0.07055555555555555,-0.002239858906525573,4,0.0019068352563401526,24.942795788876047,-6.892805151195333
18,0.022570437000013044,0.1975000264402763,6.230825429619756,-0.07055555555555555,-0.002239858906525573,15,0.007150632211275572,25.12664579746007,-6.981472230918649
19,0.023715082999956394,0.20440293998576164,6.003932626860494,-0.07055555555555555,-0.002239858906525573,12,0.005720505769020457,25.12664579746007,-7.247473470088598
20,0.024829122000028292,0.2113058535312471,5.8817595792208905,-0.07055555555555555,-0.002239858906525573,25,0.011917720352125953,25.034720793168056,-6.981472230918649
21,0.02597415800005365,0.21897575747067527,6.614797865058509,-0.07055555555555555,-0.002239858906525573,30,0.014301264422551144,25.21857080175208,-6.981472230918649
22,0.027091905000020233,0.2277961470010177,7.417649320975901,-0.07055555555555555,-0.002239858906525573,26,0.012394429166210991,25.402420810336103,-7.336140549811914
23,0.028190342000016244,0.2381505173192458,8.499753457212385,-0.07055555555555555,-0.002239858906525573,25,0.011917720352125953,25.12664579746007,-6.981472230918649
24,0.02937879299997803,0.2500388684253595,10.018189906447452,-0.07055555555555555,-0.002239858906525573,28,0.013347846794381068,25.21857080175208,-7.247473470088598
25,0.03057771099997808,0.2649951811072445,11.780972450961725,-0.07055555555555555,-0.002239858906525573,13,0.006197214583105496,25.12664579746007,-7.247473470088598
26,0.03183645199999319,0.28225246497095796,13.334315485236678,-0.07055555555555555,-0.002239858906525573,9,0.0042903793267653435,25.586270818920134,-7.070139310641965
27,0.03323715099998026,0.3014272248195285,13.997540600994522,-0.07055555555555555,-0.002239858906525573,7,0.003336961698595267,25.586270818920134,-7.070139310641965
28,0.03447265399995558,0.31791751828929915,13.316862192716734,-0.07055555555555555,-0.002239858906525573,0,0.0,25.770120827504158,-7.158806390365282
29,0.035737998000058724,0.3321068405772413,11.903145498601328,-0.07055555555555555,-0.002239858906525573,2,0.0009534176281700763,25.770120827504158,-7.247473470088598
30,0.03859429999999975,0.34437868688032647,10.314895879286487,-0.07055555555555555,-0.002239858906525573,5,0.002383544070425191,25.770120827504158,-7.158806390365282
31,0.039829820000022664,0.36547092271375403,6.876597252857659,-0.07055555555555555,-0.002239858906525573,16,0.0076273410253606105,25.862045831796166,-7.070139310641965
32,0.04095444999995834,0.3727573314562108,6.492624817418906,-0.07055555555555555,-0.002239858906525573,18,0.008580758653530687,25.586270818920134,-6.892805151195333
33,0.04208702100004302,0.3800437401986676,6.562437987498679,-0.07055555555555555,-0.002239858906525573,22,0.01048759390987084,26.229745848964214,-7.070139310641965
34,0.04319998100004341,0.3884806345320386,7.033676885537148,-0.07055555555555555,-0.002239858906525573,27,0.01287113798029603,26.04589584038019,-6.892805151195333
35,0.04433932300003107,0.3980680144563239,8.028514559173916,-0.07055555555555555,-0.002239858906525573,32,0.015254682050721221,26.229745848964214,-6.892805151195333
36,0.04557932600005188,0.41033986075940904,9.58185759344887,-0.07055555555555555,-0.002239858906525573,24,0.011441011538040915,26.32167085325623,-7.070139310641965
37,0.046867862999988574,0.4245291830473512,10.943214410004446,-0.07055555555555555,-0.002239858906525573,17,0.008104049839445649,26.689370870424277,-7.158806390365282
38,0.04821267900001658,0.44178646691106466,12.33947781159991,-0.07055555555555555,-0.002239858906525573,8,0.0038136705126803052,26.781295874716285,-7.247473470088598
39,0.049448090000055345,0.45789326518386386,12.86307658719821,-0.07055555555555555,-0.002239858906525573,11,0.00524379695493542,26.689370870424277,-7.158806390365282
40,0.05056210500003999,0.4720825874718061,12.86307658719821,-0.07055555555555555,-0.002239858906525573,5,0.002383544070425191,26.873220879008308,-7.070139310641965
41,0.05168520400002308,0.4855049193658054,12.112585008840647,-0.07055555555555555,-0.002239858906525573,6,0.0028602528845102287,26.873220879008308,-7.158806390365282
42,0.05298654299997452,0.49892725125980475,11.082840750163992,-0.07055555555555555,-0.002239858906525573,4,0.0019068352563401526,26.873220879008308,-6.981472230918649
43,0.054372739999962505,0.5119660879568327,9.721483933608416,-0.07055555555555555,-0.002239858906525573,8,0.0038136705126803052,27.057070887592324,-7.070139310641965
44,0.055595167999968,0.5227039534720322,8.813912722571365,-0.07055555555555555,-0.002239858906525573,3,0.0014301264422551144,27.148995891884333,-6.981472230918649
45,0.05684804300005908,0.532674828593289,8.115781021773632,-0.07055555555555555,-0.002239858906525573,12,0.005720505769020457,27.057070887592324,-7.158806390365282
46,0.05821751099995254,0.5437961893054598,8.04596785169386,-0.07055555555555555,-0.002239858906525573,18,0.008580758653530687,27.332845900468364,-7.070139310641965
47,0.05948241900000539,0.5541505596236879,8.133234314293576,-0.07055555555555555,-0.002239858906525573,7,0.003336961698595267,27.424770904760372,-7.158806390365282
48,0.06073462100005145,0.5648884251388874,8.447393579652555,-0.07055555555555555,-0.002239858906525573,22,0.01048759390987084,27.608620913344403,-6.892805151195333
49,0.062105730999974185,0.5775437666389439,9.05825881785057,-0.07055555555555555,-0.002239858906525573,21,0.010010885095785802,27.79247092192842,-6.981472230918649
50,0.06345277900004476,0.5909660985329432,9.512044423369096,-0.07055555555555555,-0.002239858906525573,30,0.014301264422551144,28.160170939096467,-7.070139310641965
51,0.0647055529999534,0.6036214400329998,10.105456369047168,-0.07055555555555555,-0.002239858906525573,16,0.0076273410253606105,27.884395926220442,-7.247473470088598
52,0.06593091499996717,0.6166602767300278,10.297442586766545,-0.07055555555555555,-0.002239858906525573,8,0.0038136705126803052,28.25209594338849,-6.804138071472016
53,0.06704924899997877,0.6285486278361414,10.54178868204575,-0.07055555555555555,-0.002239858906525573,9,0.0042903793267653435,28.25209594338849,-7.070139310641965
54,0.06817154500004108,0.6404369789422552,10.506882097005864,-0.07055555555555555,-0.002239858906525573,16,0.0076273410253606105,28.435945951972506,-6.892805151195333
55,0.06960852099996373,0.6519418348513975,10.506882097005864,-0.08819444444444444,-0.0027998236331569664,24,0.011441011538040915,28.527870956264515,-7.247473470088598
56,0.07085273300003792,0.6668981475332825,9.861110273767961,-0.08819444444444444,-0.0027998236331569664,24,0.011441011538040915,28.619795960556537,-7.070139310641965
57,0.07224179900003946,0.6791699938363677,9.21533845053006,-0.08819444444444444,-0.0027998236331569664,15,0.007150632211275572,29.079420982016593,-6.892805151195333
58,0.0736135419999755,0.6910583449424813,8.813912722571365,-0.08819444444444444,-0.0027998236331569664,19,0.009057467467615725,29.355195994892632,-7.070139310641965
59,0.07494728899996517,0.7025632008516236,8.447393579652555,-0.08819444444444444,-0.0027998236331569664,33,0.01573139086480626,29.44712099918464,-6.981472230918649
60,0.0762074259999963,0.7133010663668231,8.447393579652555,-0.08819444444444444,-0.0027998236331569664,36,0.017161517307061374,29.355195994892632,-7.336140549811914
61,0.07744069499995021,0.7244224270789941,8.674286382411818,-0.08819444444444444,-0.0027998236331569664,30,0.014301264422551144,29.53904600347665,-7.247473470088598
62,0.0786959020000495,0.7359272829881364,9.145525280450286,-0.08819444444444444,-0.0027998236331569664,18,0.008580758653530687,29.72289601206068,-7.158806390365282
63,0.0798068130000047,0.7470486437003072,9.634217471008698,-0.08819444444444444,-0.0027998236331569664,35,0.016684808492976336,29.81482101635269,-7.158806390365282
64,0.0809393969999519,0.758936994806421,10.157816246606998,-0.08819444444444444,-0.0027998236331569664,24,0.011441011538040915,29.72289601206068,-7.158806390365282
65,0.08217325999999048,0.7727428218973917,10.96066770252439,-0.08819444444444444,-0.0027998236331569664,28,0.013347846794381068,29.81482101635269,-7.158806390365282
66,0.0833425639999632,0.7865486489883625,11.763519158441781,-0.08819444444444444,-0.0027998236331569664,12,0.005720505769020457,29.99867102493672,-7.070139310641965
67,0.08456669800000327,0.8026554472611618,12.671090369478833,-0.08819444444444444,-0.0027998236331569664,20,0.009534176281700764,30.090596029228728,-7.5134747092585465
68,0.08579358800000136,0.8191457407309324,13.142329267517301,-0.08819444444444444,-0.0027998236331569664,12,0.005720505769020457,30.090596029228728,-7.336140549811914
69,0.0869338190000235,0.8329515678219032,12.671090369478833,-0.08819444444444444,-0.0027998236331569664,20,0.009534176281700764,30.27444603781276,-7.158806390365282
70,0.08823781499995675,0.8463738997159025,11.37954672300303,-0.08819444444444444,-0.0027998236331569664,10,0.004767088140850382,30.458296046396775,-7.070139310641965
71,0.08961647199998879,0.859029241215959,9.634217471008698,-0.08819444444444444,-0.0027998236331569664,6,0.0028602528845102287,30.458296046396775,-6.981472230918649
72,0.09082594400001653,0.8686166211402443,8.028514559173916,-0.08819444444444444,-0.0027998236331569664,28,0.013347846794381068,30.734071059272814,-6.892805151195333
73,0.09194398500005718,0.8759030298827011,6.841690667817772,-0.08819444444444444,-0.0027998236331569664,17,0.008104049839445649,30.550221050688783,-6.892805151195333
74,0.0931897719999597,0.8835729338221293,6.14355896702004,-0.08819444444444444,-0.0027998236331569664,29,0.013824555608466106,30.91792106785683,-6.981472230918649
75,0.09441806899997118,0.8916263329585289,6.230825429619756,-0.08819444444444444,-0.0027998236331569664,40,0.019068352563401527,31.101771076440862,-6.981472230918649
76,0.09555279599999267,0.9000632272918999,6.911503837897545,-0.08819444444444444,-0.0027998236331569664,32,0.015254682050721221,31.19369608073287,-6.981472230918649
77,0.0966702330000544,0.9096506072161852,8.115781021773632,-0.08819444444444444,-0.0027998236331569664,29,0.013824555608466106,31.19369608073287,-7.070139310641965
78,0.09780601199997818,0.9215389583222989,9.651670763528642,-0.08819444444444444,-0.0027998236331569664,24,0.011441011538040915,31.285621085024893,-6.981472230918649
79,0.09892346499998439,0.9349612902162983,11.519173063162574,-0.08819444444444444,-0.0027998236331569664,17,0.008104049839445649,31.561396097900918,-6.981472230918649
80,0.1000427059999538,0.9506845932921262,13.264502315156905,-0.08819444444444444,-0.0027998236331569664,13,0.006197214583105496,31.74524610648495,-6.981472230918649
81,0.10117025199997443,0.9671748867618968,14.34660645139339,-0.08819444444444444,-0.0027998236331569664,12,0.005720505769020457,31.46947109360891,-7.070139310641965
82,0.10234640199996647,0.9828981898377246,14.398966328953218,-0.08819444444444444,-0.0027998236331569664,5,0.002383544070425191,31.561396097900918,-6.804138071472016
83,0.10357367200003864,0.9997719785044666,13.683381335635543,-0.08819444444444444,-0.0027998236331569664,4,0.0019068352563401526,31.837171110776957,-7.070139310641965
84,0.10468073200001982,1.0128108152014945,12.33947781159991,-0.08819444444444444,-0.0027998236331569664,5,0.002383544070425191,32.02102111936099,-7.158806390365282
85,0.10580004300004475,1.0239321759136655,10.559241974565694,-0.08819444444444444,-0.0027998236331569664,9,0.0042903793267653435,32.02102111936099,-6.981472230918649
86,0.10717599300005531,1.0342865462318935,8.709192967451704,-0.08819444444444444,-0.0027998236331569664,11,0.00524379695493542,32.112946123652996,-7.070139310641965
87,0.10842282400005843,1.043106935762236,7.208209810736581,-0.08819444444444444,-0.0027998236331569664,17,0.008104049839445649,32.204871127945005,-7.247473470088598
88,0.10953913100001955,1.0507768397016641,6.440264939859076,-0.08819444444444444,-0.0027998236331569664,23,0.010964302723955878,32.75642115369708,-6.981472230918649
89,0.11079392800002097,1.0592137340350352,6.492624817418906,-0.08819444444444444,-0.0027998236331569664,31,0.014777973236636183,32.480646140821044,-6.892805151195333
90,0.11193225299996357,1.067267133171435,6.911503837897545,-0.08819444444444444,-0.0027998236331569664,40,0.019068352563401527,32.75642115369708,-7.247473470088598
91,0.1134940719999804,1.0799224746714913,8.133234314293576,-0.08819444444444444,-0.0027998236331569664,35,0.016684808492976336,32.940276771568655,-7.336140549811914
92,0.1151496899999529,1.0941117969594336,9.320058205649719,-0.08819444444444444,-0.0027998236331569664,35,0.016684808492976336,33.39990179302871,-7.158806390365282
93,0.1170524619999469,1.1140535472019468,10.611601852125524,-0.08819444444444444,-0.0027998236331569664,32,0.015254682050721221,33.76760181019676,-7.070139310641965
94,0.11887206200003675,1.1355292782323458,11.449359893082802,-0.08819444444444444,-0.0027998236331569664,24,0.011441011538040915,34.503001844532854,-6.804138071472016
95,0.12056179700005032,1.1539370476869735,11.344640137963141,-0.08819444444444444,-0.0027998236331569664,18,0.008580758653530687,34.135301827364806,-6.981472230918649
96,0.12226874800001042,1.173111807535544,10.890854532444616,-0.08819444444444444,-0.0027998236331569664,16,0.0076273410253606105,34.503001844532854,-7.247473470088598
97,0.12373169199997847,1.1892186058083434,10.122909661567112,-0.08819444444444444,-0.0027998236331569664,23,0.010964302723955878,34.411076840240845,-7.247473470088598
98,0.12517348000005768,1.2022574425053714,9.47713783832921,-0.08819444444444444,-0.0027998236331569664,19,0.009057467467615725,34.962626865992924,-7.070139310641965
99,0.12660183599996344,1.2149127840054277,8.674286382411818,-0.08819444444444444,-0.0027998236331569664,22,0.01048759390987084,34.686851853116885,-7.158806390365282
100,0.12815929999999298,1.22641763991457,8.185594191853406,-0.08819444444444444,-0.0027998236331569664,31,0.014777973236636183,34.962626865992924,-7.247473470088598
101,0.1300317500000574,1.2417574477934266,8.133234314293576,-0.08819444444444444,-0.0027998236331569664,30,0.014301264422551144,34.962626865992924,-7.158806390365282
102,0.13161500599994724,1.2559467700813687,8.674286382411818,-0.08819444444444444,-0.0027998236331569664,35,0.016684808492976336,35.51417689174499,-6.804138071472016
103,0.13322894299994914,1.2712865779602252,9.442231253289323,-0.08819444444444444,-0.0027998236331569664,31,0.014777973236636183,35.881876908913036,-7.247473470088598
104,0.1347123540000439,1.2881603666269672,10.297442586766545,-0.08819444444444444,-0.0027998236331569664,30,0.014301264422551144,36.24957692608108,-7.158806390365282
105,0.13622587700001532,1.3042671648997664,11.519173063162574,-0.08819444444444444,-0.0027998236331569664,26,0.012394429166210991,36.98497696041719,-7.070139310641965
106,0.13732760599998528,1.3203739631725657,12.479104151759456,-0.08819444444444444,-0.0027998236331569664,15,0.007150632211275572,36.80112695183316,-6.804138071472016
107,0.13840318500001558,1.334946780657479,12.880529879718152,-0.08819444444444444,-0.0027998236331569664,13,0.006197214583105496,36.98497696041719,-7.247473470088598
108,0.13952836199996455,1.3491361029454214,12.86307658719821,-0.08819444444444444,-0.0027998236331569664,21,0.010010885095785802,36.98497696041719,-6.981472230918649
109,0.14064959699999235,1.3621749396424494,12.02531854624093,-0.08819444444444444,-0.0027998236331569664,13,0.006197214583105496,37.35267697758524,-6.981472230918649
110,0.1422304410000379,1.3763642619303915,10.663961729685354,-0.08819444444444444,-0.0027998236331569664,15,0.007150632211275572,37.26075197329322,-6.981472230918649
111,0.1435936440000205,1.3886361082334768,9.05825881785057,-0.08819444444444444,-0.0027998236331569664,30,0.014301264422551144,37.44460198187725,-6.981472230918649
112,0.14524344999995265,1.4012914497335331,7.871434926494426,-0.08819444444444444,-0.0027998236331569664,27,0.01287113798029603,37.44460198187725,-7.247473470088598
113,0.14714378400003625,1.4143302864305611,7.033676885537148,-0.08819444444444444,-0.0027998236331569664,23,0.010964302723955878,37.0769019647092,-6.981472230918649
114,0.14886192200003734,1.4277526183245604,7.487462491055674,-0.08819444444444444,-0.0027998236331569664,41,0.019545061377486565,37.53652698616926,-6.981472230918649
115,0.15041361400005826,1.4423254358094741,8.639379797371932,-0.08819444444444444,-0.0027998236331569664,26,0.012394429166210991,37.99615200762933,-7.336140549811914
116,0.15224051799998506,1.4607332052641018,10.48942880448592,-0.08819444444444444,-0.0027998236331569664,21,0.010010885095785802,38.18000201621334,-6.981472230918649
117,0.15400020799995673,1.4845099074763293,12.671090369478833,-0.08819444444444444,-0.0027998236331569664,22,0.01048759390987084,38.54770203338139,-7.158806390365282
118,0.1554794150000589,1.5040681625218713,12.932889757277982,-0.08819444444444444,-0.0027998236331569664,23,0.010964302723955878,38.54770203338139,-7.070139310641965
119,0.1568321150000429,1.5205584559916419,12.54891732183923,-0.08819444444444444,-0.0027998236331569664,4,0.0019068352563401526,38.54770203338139,-6.892805151195333
