,Time [sec],Motor angle [rad],Motor speed [rad/sec],Linear encoder [mm],Joint angle [rad],Motor current [units],Motor torque [Nm],Force sensor TSA [N],Force sensor handle [N]
0,0.0005343580014596228,215.0372617977789,36.75663404700058,44.026666666666664,1.3976719576719576,-2,0.015450132664496088,11.866463928337312,0.04982786745134989
1,0.0018636740005604224,215.06985888952147,25.446900494077326,44.04430555555555,1.398231922398589,11,0.01535479090167908,11.922538180955442,0.048941196654116725
2,0.0031322280010499526,215.09555306771855,20.804324683772407,44.06194444444444,1.3987918871252203,0,0.015145039023481664,11.983208683788169,0.050714538248583046
3,0.004390331001559389,215.1204802555217,20.38544566329377,44.06194444444444,1.3987918871252203,1,0.014911451704579994,12.031009686020015,0.04982786745134987
4,0.005749915000706096,215.14348996733997,17.802358370342162,44.07958333333333,1.3993518518518517,-7,0.014673097297537477,12.063183437522216,0.04539451346518406
5,0.00785112400080834,215.16381521277947,9.965830028887622,44.07958333333333,1.3993518518518517,-12,0.014391839097227304,12.07421443803726,0.04539451346518406
6,0.010003769000832108,215.16918414553706,3.944444109507185,44.07958333333333,1.3993518518518517,-13,0.014139183425762234,12.068698937779738,0.04362117187071773
7,0.01140783800110512,215.16419870797642,-2.6354471705114375,44.07958333333333,1.3993518518518517,1,0.013905596106860565,12.072375937951419,0.04096115947901824
8,0.012927088000651565,215.15422783285518,-6.178465552059927,44.07958333333333,1.3993518518518517,-9,0.013662474611677196,12.053071687050096,0.04273450107348456
9,0.014453689000220038,215.13965501537027,-9.16297857297023,44.07958333333333,1.3993518518518517,15,0.013548064496296785,12.036525186277537,0.039187817884551904
10,0.016217112000958878,215.1200967603247,-11.257373675363425,44.06194444444444,1.3987918871252203,30,0.013452722733479779,12.009866935032852,0.034754463898386094
11,0.017981917000724934,215.09977151488525,-11.466813185602746,44.06194444444444,1.3987918871252203,47,0.013462256909761479,11.994239684303208,0.032094451506686605
12,0.019790504000411602,215.08251423102152,-9.930923443847735,44.04430555555555,1.398231922398589,45,0.013490859438606579,11.997916684474887,0.032094451506686605
13,0.021674505000191857,215.0683249087336,-7.487462491055674,44.026666666666664,1.3976719576719576,46,0.013447955645338926,12.022736435633734,0.029434439114987113
14,0.023296658000617754,215.0587375288093,-5.619960191421741,44.009027777777774,1.3971119929453262,43,0.01350039361488828,12.075133688080179,0.03298112230391977
15,0.024834114001350827,215.05221811046079,-4.380776422505767,44.009027777777774,1.3971119929453262,34,0.01337644932322617,12.143158191256271,0.03386779310115294
16,0.026745012000901625,215.04608218730925,-3.246312408709453,43.991388888888885,1.3965520282186947,38,0.013366915146944469,12.207505694260677,0.03652780549285243
17,0.028457734000767232,215.04148024494557,-2.548180707911721,43.991388888888885,1.3965520282186947,36,0.013304943001113416,12.283803447823047,0.03830114708731875
18,0.030011374999958207,215.0384122833698,-1.9722220547535925,43.973749999999995,1.3959920634920633,35,0.013242970855282359,12.340796950484094,0.04184783027625139
19,0.031444146001376794,215.03611131218798,-1.8151424220741028,43.973749999999995,1.3959920634920633,33,0.013204834150155555,12.370212951857539,0.04007448868178507
20,0.03278922500066983,215.03381034100616,-1.6231562043547265,43.973749999999995,1.3959920634920633,30,0.013161930356887903,12.368374451771698,0.04007448868178507
21,0.034446503001163364,215.03150936982433,-1.4311699866353502,43.973749999999995,1.3959920634920633,30,0.013085656946634296,12.374809202072138,0.04362117187071773
22,0.0362205890014593,215.02959189383947,-1.064650843716541,43.973749999999995,1.3959920634920633,28,0.013033218977084942,12.372970701986299,0.04539451346518405
23,0.038131647001137026,215.02767441785463,-1.0471975511965976,43.991388888888885,1.3965520282186947,24,0.012952178478690487,12.354585701127895,0.04450784266795088
24,0.03981417400063947,215.02575694186976,-1.0471975511965976,43.991388888888885,1.3965520282186947,21,0.012804398746324126,12.314138699239411,0.04539451346518403
25,0.041437376001340454,215.02345597068793,-1.413716694115407,43.991388888888885,1.3965520282186947,20,0.012689988630943718,12.282884197780124,0.043621171870717707
26,0.04295467600059055,215.02077150430912,-1.7453292519943295,44.009027777777774,1.3971119929453262,16,0.012532674722295654,12.271853197265084,0.0462811842624172
27,0.04440315500141878,215.01732004753637,-2.251474735072685,44.009027777777774,1.3971119929453262,22,0.012480236752746298,12.276449447479683,0.043621171870717707
28,0.04592675800085999,215.01271810517272,-2.9845130209103035,44.009027777777774,1.3971119929453262,17,0.012351525372943338,12.308623198981888,0.043621171870717707
29,0.047388628001499455,215.00696567721815,-3.5779249665883754,44.009027777777774,1.3971119929453262,17,0.012232348169422076,12.351827950999132,0.04096115947901822
30,0.04906551500062051,215.00044625886963,-4.014257279586958,44.009027777777774,1.3971119929453262,26,0.012127472230323367,12.389517202758856,0.03830114708731873
31,0.050689854000665946,214.99354334532416,-4.276056667386108,44.009027777777774,1.3971119929453262,27,0.012098869701478266,12.452026205677425,0.039187817884551904
32,0.052440699000726454,214.9862569365817,-4.1887902047863905,43.991388888888885,1.3965520282186947,30,0.011970158321675304,12.492473207565912,0.039187817884551904
33,0.05388537700127927,214.98012101343016,-3.961897402027128,43.991388888888885,1.3965520282186947,30,0.011941555792830204,12.518212208767675,0.03830114708731873
34,0.055366110000250046,214.97590256626347,-3.4033920413889427,43.991388888888885,1.3965520282186947,24,0.011874816558858298,12.521889208939358,0.039187817884551904
35,0.05718627200076298,214.97091712870284,-2.478367537831948,43.973749999999995,1.3959920634920633,30,0.011812844413027244,12.52648545915396,0.03741447629008558
36,0.059242772000288824,214.9674656719301,-1.710422666954443,43.973749999999995,1.3959920634920633,25,0.011727036826491937,12.516373708681838,0.03741447629008558
37,0.060860090001369826,214.96554819594525,-1.1693705988362009,43.956111111111106,1.3954320987654318,24,0.011574490005984726,12.500746457952197,0.039187817884551904
38,0.06285161600135325,214.96363071996038,-0.9075712110370514,43.956111111111106,1.3954320987654318,23,0.011450545714322614,12.485119207222551,0.04273450107348454
39,0.0645152680008323,214.96248023436948,-0.6108652381980153,43.956111111111106,1.3954320987654318,23,0.01135520395150561,12.497988707823435,0.04539451346518403
40,0.0660186880013498,214.96171324397554,-0.5934119456780721,43.956111111111106,1.3954320987654318,22,0.011226492571702648,12.512696708510157,0.04628118426241718
41,0.06736578800155257,214.9609462535816,-0.5934119456780721,43.956111111111106,1.3954320987654318,24,0.01112161663260394,12.543951209969439,0.04450784266795086
42,0.06874892599989835,214.95979576799067,-0.6108652381980153,43.956111111111106,1.3954320987654318,23,0.01099767234094183,12.603702462759244,0.043621171870717707
43,0.07030437600042205,214.95864528239977,-0.7155849933176751,43.956111111111106,1.3954320987654318,23,0.010907097666265672,12.654261215119854,0.043621171870717707
44,0.07204657000147563,214.95749479680885,-0.7853981633974483,43.956111111111106,1.3954320987654318,20,0.010735482493195059,12.718608718124266,0.04450784266795088
45,0.07389538300049026,214.95557732082398,-0.8552113334772214,43.956111111111106,1.3954320987654318,20,0.0106163052896738,12.771925220613632,0.04539451346518405
46,0.07592508700145117,214.9540433400361,-0.8552113334772214,43.956111111111106,1.3954320987654318,24,0.010468525557307437,12.814210722587957,0.04805452585688354
47,0.07783398399988073,214.95212586405125,-0.8377580409572782,43.973749999999995,1.3959920634920633,22,0.010273074943532572,12.815129972630873,0.0462811842624172
48,0.07985972300048161,214.95059188326337,-0.8726646259971648,43.973749999999995,1.3959920634920633,22,0.01014436356372961,12.808695222330435,0.04716785505965037
49,0.08159693600100582,214.94829091208152,-1.117010721276371,43.973749999999995,1.3959920634920633,19,0.010034720536490054,12.78755247134327,0.046281184262417216
50,0.08400796100067964,214.9448394553088,-1.5533430342749532,43.973749999999995,1.3959920634920633,20,0.009920310421109645,12.77192522061363,0.042734501073484574
51,0.08568116600145004,214.94138799853604,-1.8675022996339325,43.973749999999995,1.3959920634920633,23,0.009758229424320732,12.744347719326026,0.04539451346518406
52,0.0875470380015031,214.93755304656634,-1.9722220547535925,43.956111111111106,1.3954320987654318,20,0.00963428513265862,12.726881968510545,0.048941196654116705
53,0.08902981100072793,214.93448508499057,-2.129301687433082,43.956111111111106,1.3954320987654318,26,0.009486505400292259,12.720447218210106,0.048941196654116705
54,0.09051114200156007,214.93180061861176,-1.9373154697137058,43.956111111111106,1.3954320987654318,21,0.00934349275606675,12.76365197022735,0.04805452585688354
55,0.09202056499998434,214.92949964742994,-1.5707963267948966,43.956111111111106,1.3954320987654318,22,0.009281520610235693,12.796744971772478,0.04716785505965037
56,0.09349409300011757,214.92796566664205,-1.0995574287564276,43.93847222222222,1.3948721340388006,21,0.009138507966010182,12.832595723446358,0.04450784266795088
57,0.09501416100101778,214.92681518105113,-0.6806784082777885,43.93847222222222,1.3948721340388006,21,0.009038399115052324,12.884992975892807,0.04273450107348454
58,0.09651168700111157,214.92643168585417,-0.29670597283903605,43.93847222222222,1.3948721340388006,22,0.008895386470826813,12.91808597743793,0.04539451346518403
59,0.09811024000009638,214.92643168585417,0.0,43.93847222222222,1.3948721340388006,18,0.008776209267305553,12.931874728081734,0.048054525856883516
60,0.09951127300155349,214.92643168585417,0.0,43.93847222222222,1.3948721340388006,23,0.008642730799361743,12.926359227824214,0.04894119665411669
61,0.10098026000014215,214.92643168585417,0.0,43.93847222222222,1.3948721340388006,20,0.008719004209615348,12.913489727223332,0.05160120904581618
62,0.10239101300066977,214.92643168585417,0.0,43.93847222222222,1.3948721340388006,20,0.008580758653530687,12.886831475978648,0.04894119665411669
63,0.10390720600116765,214.92643168585417,0.0,43.93847222222222,1.3948721340388006,18,0.008680867504488545,12.864769474948567,0.04894119665411669
64,0.10539478200007579,214.92643168585417,0.0,43.93847222222222,1.3948721340388006,19,0.00849495106699538,12.857415474605203,0.05337455064028249
65,0.10688410700095119,214.92643168585417,0.0,43.93847222222222,1.3948721340388006,22,0.008466348538150278,12.8436267239614,0.05160120904581618
66,0.10837370600165741,214.92643168585417,0.0,43.93847222222222,1.3948721340388006,17,0.00836623968719242,12.836272723618043,0.04982786745134986
67,0.10987368400128616,214.92604819065718,-0.2792526803190927,43.93847222222222,1.3948721340388006,19,0.008418677656741775,12.83719197366096,0.04805452585688354
68,0.11132515700046497,214.92604819065718,0.0,43.93847222222222,1.3948721340388006,19,0.008299500453220515,12.84270747391848,0.04982786745134986
69,0.11311533500156656,214.92604819065718,0.0,43.93847222222222,1.3948721340388006,17,0.008399609304178372,12.864769474948565,0.04894119665411669
70,0.11540707600033784,214.92604819065718,0.0,43.93847222222222,1.3948721340388006,15,0.008351938422769867,12.912570477180411,0.050714538248583005
71,0.11721292299989727,214.92604819065718,0.0,43.93847222222222,1.3948721340388006,18,0.00872853838589705,12.970483229884378,0.050714538248583005
72,0.11890221700014081,214.92566469546023,-0.2792526803190927,43.93847222222222,1.3948721340388006,18,0.008399609304178372,13.030234482674183,0.052487879843049326
73,0.12036674600130937,214.92528120026324,-0.06981317007977318,43.93847222222222,1.3948721340388006,16,0.008461581450009427,13.084470235206474,0.0578079046264483
74,0.1219129890014301,214.92528120026324,-0.10471975511965978,43.93847222222222,1.3948721340388006,17,0.008447280185586875,13.1267557371808,0.062241258612614134
75,0.12342524300038349,214.9248977050663,-0.2792526803190927,43.93847222222222,1.3948721340388006,15,0.008447280185586875,13.14881773821088,0.06578794180154678
76,0.12536424400059332,214.92413071467234,-0.4014257279586958,43.93847222222222,1.3948721340388006,15,0.008456814361868575,13.156171738554242,0.07022129578771258
77,0.12691790200005926,214.92298022908142,-0.5934119456780721,43.93847222222222,1.3948721340388006,17,0.008537854860263032,13.155252488511321,0.07820133296281105
78,0.12865234200035047,214.9218297434905,-0.7330382858376184,43.93847222222222,1.3948721340388006,13,0.008742839650319599,13.1405444878246,0.0817480161517437
79,0.1316817250008171,214.91876178191472,-1.1868238913561442,43.93847222222222,1.3948721340388006,14,0.008714237121474497,13.112047736494075,0.08352135774621
80,0.1333064500013279,214.9164608107329,-1.361356816555577,43.93847222222222,1.3948721340388006,10,0.008771442179164701,13.07343923469143,0.08706804093514264
81,0.13486081900009594,214.9137763443541,-1.361356816555577,43.93847222222222,1.3948721340388006,14,0.0087809763554464,13.039426983103386,0.08884138252960899
82,0.13644160400144756,214.91147537317227,-1.5533430342749532,43.93847222222222,1.3948721340388006,14,0.008680867504488545,13.027476732545423,0.08795471173237582
83,0.13832312000158709,214.9084074115965,-1.7802358370342162,43.93847222222222,1.3948721340388006,15,0.008733305474037898,13.010930231772864,0.09150139492130847
84,0.13986564200058638,214.90533945002073,-1.8675022996339325,43.93847222222222,1.3948721340388006,15,0.008828647236854906,13.005414731515343,0.09327473651577481
85,0.1412671030011552,214.90265498364192,-1.9373154697137058,43.93847222222222,1.3948721340388006,15,0.00886678394198171,12.9989799812149,0.0959347489074743
86,0.14265483300005144,214.89958702206616,-2.059488517353309,43.93847222222222,1.3948721340388006,14,0.00875714091474215,12.981514230399416,0.0959347489074743
87,0.14415377600016654,214.8965190604904,-2.199114857512855,43.93847222222222,1.3948721340388006,14,0.008776209267305553,12.970483229884376,0.10125477369087328
88,0.14575549500113993,214.8923006133237,-2.3911010752322315,43.920833333333334,1.3943121693121694,16,0.008804811796150653,12.95485597915473,0.09948143209640696
89,0.14721920900046825,214.888465661354,-2.5830872929516078,43.920833333333334,1.3943121693121694,16,0.008842948501277457,12.945663478725532,0.09859476129917379
90,0.14862095800162933,214.88501420458124,-2.5132741228718345,43.920833333333334,1.3943121693121694,22,0.008966892792939567,12.941067228510933,0.09682141970470745
91,0.15003443600107857,214.88194624300547,-2.3911010752322315,43.920833333333334,1.3943121693121694,26,0.009052700379474874,12.934632478210494,0.10125477369087327
92,0.15161378100128786,214.87849478623272,-2.0245819323134224,43.920833333333334,1.3943121693121694,25,0.00911943961344678,12.920843727566695,0.10214144448810641
93,0.15339886299989303,214.87581031985394,-1.6755160819145565,43.920833333333334,1.3943121693121694,24,0.009257685169531439,12.913489727223332,0.10302811528533957
94,0.15528480400098488,214.87312585347513,-1.2217304763960306,43.920833333333334,1.3943121693121694,15,0.009157576318573583,12.902458726708291,0.10657479847427224
95,0.15690021000045817,214.8712083774903,-1.1344640137963142,43.920833333333334,1.3943121693121694,16,0.009300588962799092,12.89418547632201,0.10657479847427224
96,0.15852199400069367,214.86967439670238,-1.0995574287564276,43.920833333333334,1.3943121693121694,14,0.009229082640686339,12.888669976064488,0.10923481086597173
97,0.16038164400015376,214.8669899303236,-1.3089969389957472,43.920833333333334,1.3943121693121694,7,0.009295821874658243,12.885912225935728,0.11100815246043806
98,0.16189306000160286,214.86507245433873,-1.3788101090755203,43.920833333333334,1.3943121693121694,13,0.0093577940204893,12.888669976064488,0.11278149405490438
99,0.16350573700037785,214.86238798795995,-1.6057029118347832,43.920833333333334,1.3943121693121694,13,0.009353026932348449,12.896023976407848,0.11632817724383704
100,0.16508461500052363,214.85932002638415,-1.8675022996339325,43.920833333333334,1.3943121693121694,12,0.009419766166320356,12.907054976922888,0.12342154362170234
101,0.1663278710002487,214.85663556000537,-2.007128639793479,43.920833333333334,1.3943121693121694,14,0.009434067430742906,12.924520727738372,0.12253487282446918
102,0.16762256900074135,214.85395109362656,-2.2165681500327987,43.920833333333334,1.3943121693121694,20,0.009529409193559912,12.940147978468012,0.12164820202723602
103,0.16912461399988388,214.85011614165686,-2.321287905152458,43.920833333333334,1.3943121693121694,13,0.009586614251250118,12.954855979154734,0.12608155601340182
104,0.17050489100074628,214.8466646848841,-2.600540585471551,43.920833333333334,1.3943121693121694,24,0.009734393983616479,12.974160230056059,0.126968226810635
105,0.17213057500157447,214.84167924732347,-2.9321531433504737,43.920833333333334,1.3943121693121694,24,0.009906009156687092,12.9897874807857,0.126968226810635
106,0.17372908500146877,214.83631031456588,-3.1590459461097367,43.920833333333334,1.3943121693121694,28,0.010101459770461958,13.006333981558264,0.12785489760786817
107,0.17524298400167027,214.83132487700524,-3.473205211468716,43.903194444444445,1.393752204585538,21,0.010196801533278968,13.018284232116224,0.1296282392023345
108,0.1773207430014736,214.82442196345977,-3.4033920413889427,43.903194444444445,1.393752204585538,31,0.010387485058912982,13.029315232631268,0.12785489760786817
109,0.17871590700087836,214.82020351629308,-3.036872898470133,43.903194444444445,1.393752204585538,22,0.010420854675898934,13.043103983275069,0.13228825159403398
110,0.18020194400014589,214.81636856432337,-2.600540585471551,43.903194444444445,1.393752204585538,29,0.010416087587758084,13.053215733747187,0.13494826398573345
111,0.1815867770001205,214.8133006027476,-2.199114857512855,43.903194444444445,1.393752204585538,16,0.010268307855391724,13.064246734262234,0.1384949471746661
112,0.18281930800003465,214.81099963156578,-1.8325957145940461,43.903194444444445,1.393752204585538,16,0.01013006229930706,13.073439234691435,0.1384949471746661
113,0.18408182400162332,214.8090821555809,-1.7627825445142729,43.903194444444445,1.393752204585538,15,0.009982282566940698,13.079873984991876,0.13760827637743295
114,0.1854032820010616,214.80678118439909,-1.6929693744344996,43.885555555555555,1.3931922398589065,18,0.009863105363419437,13.082631735120634,0.13760827637743295
115,0.18689629300024535,214.80409671802028,-1.8151424220741028,43.885555555555555,1.3931922398589065,28,0.009834502834574337,13.082631735120636,0.13672160558019977
116,0.18842440100161184,214.8014122516415,-1.8325957145940461,43.885555555555555,1.3931922398589065,23,0.009762996512461581,13.081712485077714,0.13760827637743295
117,0.19061993300056201,214.79796079486874,-1.6057029118347832,43.885555555555555,1.3931922398589065,17,0.009672421837785425,13.078954734948956,0.13317492239126716
118,0.19259938600043824,214.79489283329298,-1.3264502315156905,43.885555555555555,1.3931922398589065,34,0.009667654749644573,13.078035484906033,0.12874156840510134
119,0.19503633600106696,214.79259186211115,-0.9948376736367679,43.885555555555555,1.3931922398589065,31,0.009658120573362874,13.081712485077714,0.12874156840510134
120,0.19699694200062368,214.79105788132324,-0.7330382858376184,43.885555555555555,1.3931922398589065,13,0.009577080074968415,13.078954734948953,0.1278548976078682
121,0.19898803200158,214.78952390053536,-0.6632251157578453,43.885555555555555,1.3931922398589065,31,0.009581847163109267,13.078035484906032,0.12342154362170238
122,0.2005874930000573,214.78837341494446,-0.5585053606381855,43.885555555555555,1.3931922398589065,27,0.009577080074968417,13.07619698482019,0.12430821441893554
