,Time [sec],Motor angle [rad],Motor speed [rad/sec],Linear encoder [mm],Joint angle [rad],Motor current [units],Motor torque [Nm],Force sensor TSA [N],Force sensor handle [N]
0,0.0010215180000159307,257.65163158043896,-10.96066770252439,39.31708333333333,1.2481613756613756,8,0.01609368956351089,5.234074868668631,0.48252321650113295
1,0.003402927000024647,257.6301558494086,-8.936085770210967,39.31708333333333,1.2481613756613756,-51,0.0156408161901301,5.191789366694306,0.4816365457038998
2,0.005645375000028707,257.5918063297114,-17.226399717184034,39.29944444444444,1.2476014109347442,84,0.015774294658073916,5.157777115106262,0.4816365457038998
3,0.007840576000035071,257.5764665218326,-7.487462491055674,39.28180555555555,1.2470414462081127,21,0.0156026794850033,5.138472864204939,0.48163654570389997
4,0.010176168000043617,257.5519228292264,-10.629055144645466,39.28180555555555,1.2470414462081127,84,0.01573139086480626,5.111814612960256,0.48518322889283255
5,0.012451166999994712,257.55268981962035,0.6108652381980153,39.28180555555555,1.2470414462081127,35,0.015569309868017345,5.096187362230614,0.48163654570389974
6,0.016194369999993796,257.5607432187567,3.5081117965086026,39.26416666666667,1.2464814814814815,88,0.015740925041087962,5.089752611930172,0.48606989969006564
7,0.018700629000022673,257.60254419522664,10.437068926926091,39.26416666666667,1.2464814814814815,109,0.016136593356778542,5.1108953629173355,0.48429655809559924
8,0.021634430999995402,257.6792432346209,28.34414705238791,39.28180555555555,1.2470414462081127,52,0.016160428797482793,5.168808115621304,0.4869565704872987
9,0.023887086000002,257.7528743124394,30.647981665020428,39.28180555555555,1.2470414462081127,96,0.01637971485196191,5.2497021193982745,0.4842965580955992
10,0.025998391000030097,257.82497140947004,35.709436495803985,39.31708333333333,1.2481613756613756,80,0.016570398377595927,5.325080622917723,0.48429655809559935
11,0.028363528999989285,257.92698113186447,48.90412564088111,39.33472222222222,1.2487213403880069,66,0.01663237052342698,5.405055376651774,0.4834098872983661
12,0.03295362099999011,258.18047145706254,55.902895941378375,39.405277777777776,1.2509611992945326,135,0.017094778073089466,5.482272380257063,0.48429655809559935
13,0.03695018500002334,258.4868841194427,82.32718081657252,39.511111111111106,1.2543209876543209,74,0.01721872236475158,5.541104383003951,0.4913899244734647
14,0.039023391999990054,258.6855346314739,94.02088680493453,39.564027777777774,1.256000881834215,88,0.01741894006666729,5.5861476351070385,0.49404993686516413
15,0.04047872699999289,258.85082106136855,110.58406140636072,39.61694444444444,1.2576807760141093,66,0.017442775507371545,5.631190887210124,0.4922765952706978
16,0.041961793000041325,259.0111220537026,104.94664792241903,39.65222222222222,1.258800705467372,142,0.017924251409597435,5.676234139313212,0.4958232784596304
17,0.04346604800002751,259.17410751241545,106.65707058937348,39.70513888888889,1.2604805996472663,114,0.018205509609907605,5.716681141201695,0.4967099492568635
18,0.04496614900000395,259.34169491349195,110.86331408667981,39.75805555555555,1.2621604938271604,106,0.01852013742720373,5.7506933927897395,0.5011433032430294
19,0.04659626400001571,259.53996193032617,119.92157290453038,39.82861111111111,1.264400352733686,94,0.018667917159570092,5.75896664317602,0.5055766572291951
20,0.048272036000014396,259.730559043221,130.70770768185534,39.899166666666666,1.2666402116402116,72,0.018691752600274347,5.785624894420704,0.5082366696208946
21,0.04995855999999321,259.9568212094341,129.71287000821857,39.987361111111106,1.2694400352733684,74,0.018777560186809653,5.807686895450787,0.5135566944042937
22,0.05241350900001862,260.2954474683599,134.66960508388246,40.11083333333333,1.2733597883597882,26,0.018672684247710944,5.815960145837068,0.5144433652015268
23,0.05441872300002615,260.561976630255,126.92034320502765,40.21666666666666,1.2767195767195765,18,0.01851537033906288,5.821475646094589,0.5153300359987599
24,0.05637288200000512,260.7847873396954,121.77162191164437,40.3225,1.280079365079365,16,0.018400960223682473,5.82147564609459,0.5171033775932263
25,0.05830508799999734,261.0409621312723,126.69345040226838,40.410694444444445,1.2828791887125222,-14,0.01808633240638635,5.833425896652551,0.5171033775932263
26,0.06011498399999482,261.2764281822127,124.98302773531394,40.534166666666664,1.2867989417989416,1,0.01786227926376638,5.859164897854315,0.5162167067959932
27,0.06276034000001118,261.4394136409256,110.32226201856157,40.67527777777777,1.2912786596119927,28,0.01776217041280852,5.8564071477255535,0.5135566944042936
28,0.0643223760000069,261.73969038015423,107.77408131064985,40.74583333333333,1.2935185185185185,-8,0.01747137803621665,5.849053147382193,0.5117833528098273
29,0.0666136110000366,261.9045933148519,108.01842740592906,40.869305555555556,1.2974382716049382,3,0.017242557805455833,5.81596014583707,0.5091233404181278
30,0.06836690200003659,262.1515642217015,95.43460349904994,40.93986111111111,1.2996781305114637,7,0.017028038839117562,5.772755365773386,0.5082366696208946
31,0.07000580499999387,262.2961419109597,86.58578419143869,41.010416666666664,1.3019179894179893,22,0.016913628723737154,5.703811584507939,0.499369961648563
32,0.07229827300000125,262.48635552865755,88.83725892651137,41.08097222222222,1.304157848324515,27,0.01677538316765249,5.608209551997808,0.4949366076623973
33,0.07466516100004128,262.68730701187053,87.45844881743585,41.15152777777777,1.3063977072310404,19,0.01664190469970868,5.510769047448276,0.49050325367623143
34,0.07633379000003515,262.8311177107348,82.03047484373349,41.18680555555555,1.3075176366843033,28,0.016565631289455075,5.428955793628384,0.48606989969006564
35,0.07780870400000595,262.93581189950805,69.44665093685437,41.22208333333333,1.308637566137566,52,0.016579932553877626,5.355415790194776,0.48074987490666665
36,0.07932187599999452,263.04817599222065,76.82939367279039,41.23972222222222,1.3091975308641974,35,0.016537028760609973,5.299341537576648,0.4763165209205009
37,0.08069576200000483,263.1559381425696,74.96189137315645,41.275,1.3103174603174603,62,0.016541795848750825,5.258894535688162,0.4780898625149672
38,0.08211116800003992,263.2552633985852,75.20623746843566,41.29263888888889,1.3108774250440918,42,0.01648935787920147,5.219366783842599,0.47720319171773395
39,0.08361302400004433,263.3779818616161,84.05505677604691,41.31027777777778,1.311437389770723,23,0.016346345234975957,5.177081281868271,0.47720319171773395
40,0.08508460500002002,263.49916634385903,76.70722062515078,41.345555555555556,1.3125573192239859,64,0.016451221174074666,5.165131031310309,0.47986320410943356
41,0.08662065800001528,263.60271004704134,71.47123286916779,41.38083333333333,1.3136772486772486,21,0.016312975617990007,5.17340428169659,0.48429655809559935
42,0.0898959300000115,263.83012269884534,65.3102206096278,41.451388888888886,1.3159171075837741,77,0.01648935787920147,5.209255033370475,0.48961658287899823
43,0.09174394500001881,263.9670304841641,69.63863715457374,41.486666666666665,1.317037037037037,51,0.016513193319905722,5.280037286675325,0.4940499368651641
44,0.09362046199998986,264.11045768783146,76.21852843459237,41.55722222222222,1.3192768959435626,8,0.01633204397055341,5.365527540666896,0.4967099492568636
45,0.09730828200002861,264.3835062680751,66.88101693642271,41.66305555555555,1.3226366843033508,14,0.016198565502609598,5.4455022944009475,0.5002566324457962
46,0.09933090999999195,264.48896744724226,53.00564938306779,41.71597222222222,1.3243165784832451,66,0.016265304736581502,5.511688297491196,0.5002566324457963
47,0.10174069000004238,264.62664222295496,52.11553146455068,41.80416666666667,1.3271164021164021,62,0.016303441441708307,5.571439550281003,0.49848329085132986
48,0.1034615010000266,264.7305694213342,59.23647481268755,41.87472222222222,1.3293562610229275,47,0.01631774270613086,5.6137250522553295,0.5002566324457962
49,0.10506492199999684,264.81877331663765,54.80333851262195,41.91,1.3304761904761904,39,0.01625100347215895,5.645898803757534,0.4958232784596304
50,0.10659722500003,264.9177150774563,64.92624817418906,41.962916666666665,1.3321560846560847,14,0.016165195885623648,5.670718554916378,0.49404993686516413
51,0.10824497400000155,264.99863256401727,48.60741966804208,42.01583333333333,1.3338359788359788,55,0.01621286676703215,5.672557055002216,0.48872991208176514
52,0.10992493800000602,265.109462675942,65.64183316750673,42.05111111111111,1.3349559082892417,0,0.016160428797482796,5.671637804959297,0.4816365457038998
53,0.11147406600002796,265.17772482100287,45.553093477052,42.086388888888884,1.3360758377425042,67,0.016198565502609598,5.657849054315495,0.4789765333122004
54,0.1130964260000269,265.2594092979578,49.968776484597655,42.12166666666666,1.337195767195767,39,0.016260537648440654,5.637625553371254,0.47010982533986867
55,0.1146761710000419,265.33112289979147,45.50073359949217,42.13930555555555,1.3377557319223985,25,0.01624146929587725,5.61924055251285,0.4665631421509361
56,0.1161887900000238,265.39938504485235,43.54596483725852,42.15694444444444,1.33831569664903,51,0.016222400943313852,5.599936301611528,0.46212978816477024
57,0.11758980600001223,265.4622782571557,47.83947479716457,42.17458333333333,1.3388756613756614,23,0.01634157814683511,5.586147550967726,0.4612431173675371
58,0.11918862400000307,265.5263219550499,37.978364523396614,42.19222222222222,1.3394356261022926,59,0.016346345234975957,5.587066801010646,0.4630164589620034
59,0.12532293200001732,265.8001375256875,47.595128701885365,42.26277777777778,1.3416754850088184,34,0.016465522438497218,5.593501551311086,0.46744981294816923
60,0.1394685310000341,265.87875404106666,41.713369122664474,42.456805555555555,1.3478350970017636,38,0.016332043970553406,5.634867803242491,0.4683364837454024
61,0.14138015899999345,266.44977838935705,42.725660088821186,42.50972222222222,1.349514991181658,54,0.016608535082722732,5.695538306075219,0.4692231545426355
62,0.14317722900000263,266.5241764575695,40.02039974822998,42.544999999999995,1.3506349206349204,9,0.016537028760609973,5.777351559895111,0.4718831669343351
63,0.1447008609999898,266.57748228994853,34.33062638672846,42.562638888888884,1.3511948853615519,33,0.016565631289455075,5.8610033138008415,0.4718831669343351
64,0.14627332100002377,266.638458026267,41.119957176986404,42.59791666666666,1.3523148148148147,4,0.01663237052342698,5.948332067878254,0.4780898625149672
65,0.1479034110000157,266.6879289066763,31.625366046137252,42.63319444444444,1.3534347442680774,20,0.016336811058694254,6.0163565710543425,0.476316520920501
66,0.14941689599999108,266.7278124071613,24.661502330679877,42.65083333333333,1.3539947089947089,45,0.016365413587539356,6.083461824187512,0.4745431793260345
67,0.15137420000002066,266.77153085961606,24.73131550075965,42.68611111111111,1.3551146384479718,44,0.01652272749618742,6.1119585755180355,0.4709964961371018
68,0.15301664399999027,266.81639979766175,25.830872929516076,42.72138888888889,1.3562345679012346,41,0.016556097113173372,6.103685325131754,0.46744981294816923
69,0.15460326700002724,266.8547493173589,24.03318379996192,42.73902777777778,1.3567945326278659,40,0.016722945198103138,6.095412074745475,0.4692231545426355
70,0.1561344849999955,266.8835114571317,19.722220547535922,42.75666666666667,1.3573544973544973,62,0.01674201355066654,6.089896574487954,0.4683364837454025
71,0.15760070999999698,266.91802602485916,21.78170906488923,42.75666666666667,1.3573544973544973,53,0.017037573015399262,6.058642073028668,0.46567647135370294
72,0.15911653099999512,266.96366195329875,29.478611066184225,42.77430555555555,1.3579144620811285,26,0.017156750218920526,6.021872071311865,0.4656764713537031
73,0.16062514500004,267.0062299201626,29.356438018544623,42.77430555555555,1.3579144620811285,24,0.01707094263238522,5.98418281955214,0.46567647135370294
74,0.16208783799999082,267.0353755551324,20.629791758572974,42.79194444444444,1.35847442680776,23,0.017132914778216272,5.931785567105693,0.4630164589620035
75,0.1635538810000412,267.06260371411736,17.296212887263806,42.79194444444444,1.35847442680776,65,0.01748091221249835,5.883984564873845,0.46478980055646985
76,0.16501766400000406,267.1028707097994,25.883232807075906,42.79194444444444,1.35847442680776,30,0.017294995775005186,5.832506562470319,0.4683364837454024
77,0.16638754000001654,267.1389192583147,27.10496328347194,42.79194444444444,1.35847442680776,8,0.01724255780545583,5.788382560410153,0.4727698377315683
78,0.16802474100001064,267.17189984525425,20.821777976292353,42.80958333333333,1.3590343915343914,42,0.0174666109480758,5.729550557663265,0.4718831669343351
79,0.1699658169999907,267.20372994660283,16.964600329384883,42.80958333333333,1.3590343915343914,51,0.017433241331089845,5.6734763050451384,0.47454317932603457
80,0.17200777900001185,267.242462961497,19.268434942017397,42.82722222222222,1.3595943562610229,69,0.017809841294217026,5.636706303328333,0.47454317932603457
81,0.1745380600000317,267.29883675545176,22.863813201125716,42.84486111111111,1.3601543209876543,52,0.018052962789400395,5.606371051911969,0.4789765333122004
82,0.17668793100000357,267.34869113105805,22.095868330248212,42.8625,1.3607142857142855,37,0.018129236199654,5.585228300924806,0.48340988729836615
83,0.1781620490000364,267.3797542420127,20.751964806212577,42.8625,1.3607142857142855,25,0.01820550960990761,5.575116550452686,0.4869565704872988
84,0.17970432900000333,267.40621541060375,18.395770316020233,42.88013888888889,1.361274250440917,40,0.018439096928809275,5.572358800323924,0.4896165828789984
85,0.18127103599999828,267.4326765791948,16.126842288427603,42.897777777777776,1.3618342151675484,45,0.018677451335851792,5.587066801010646,0.48872991208176514
86,0.1828505029999974,267.4583707573919,16.859880574265222,42.915416666666665,1.3623941798941799,45,0.0187537247461054,5.618321302469931,0.49050325367623154
87,0.18454782600002773,267.4928853251193,19.722220547535922,42.933055555555555,1.3629541446208113,37,0.018806162715654752,5.643141053628774,0.4913899244734647
88,0.18607698599998912,267.5212639696952,19.093902016817964,42.933055555555555,1.3629541446208113,29,0.018973010800584517,5.668880054830535,0.4913899244734647
89,0.18751874500003396,267.5438901863165,15.77777643802874,42.950694444444444,1.3635141093474428,35,0.01914462597365513,5.69553830607522,0.4913899244734647
90,0.18906671000002007,267.5615309653772,12.112585008840647,42.968333333333334,1.364074074074074,56,0.019378213292556803,5.723115807362824,0.49050325367623143
91,0.19078320800002757,267.5818562108167,11.431906600562858,42.98597222222222,1.3646340388007054,65,0.019678539845430377,5.750693308650426,0.4913899244734647
92,0.19230045300002985,267.60256495145313,13.50884841043611,43.003611111111105,1.3651940035273367,57,0.020036071455994155,5.7819478101097115,0.4949366076623973
93,0.19382828999999901,267.6274921392563,16.16174887346749,43.003611111111105,1.3651940035273367,43,0.020245823334191573,5.8021713110539554,0.4949366076623973
94,0.19542259600001444,267.65510379343823,16.929693744344995,43.021249999999995,1.365753968253968,34,0.020269658774895824,5.811363811483155,0.4940499368651641
95,0.19886609400003863,267.67734651486256,15.446163880149816,43.038888888888884,1.3663139329805996,32,0.020469876476811543,5.813202311568995,0.49582327845963037
96,0.20236983600000258,267.73218632802946,10.122909661567112,43.038888888888884,1.3663139329805996,53,0.020589053680332797,5.812283061526075,0.49848329085132986
97,0.20468036500000153,267.75903099181744,12.112585008840647,43.038888888888884,1.3663139329805996,51,0.020798805558530215,5.812283061526075,0.5011433032430292
98,0.20649287100002311,267.78625915080244,13.61356816555577,43.056527777777774,1.366873897707231,46,0.021027625789291036,5.805848311225634,0.504689986431962
99,0.20815977000000885,267.8111863386056,14.276793281313616,43.056527777777774,1.366873897707231,42,0.02118970678607995,5.7984943108822735,0.5073499988236614
100,0.20974912400004087,267.83457954562084,13.56120828799594,43.056527777777774,1.366873897707231,43,0.02135655487100971,5.766320559380068,0.5082366696208946
101,0.21112988200002292,267.85068634389364,12.02531854624093,43.056527777777774,1.366873897707231,39,0.021785592803686245,5.731389057749104,0.5082366696208946
102,0.21309090400001196,267.8687106181513,9.773843811168245,43.07416666666666,1.3674338624338622,43,0.021590142189911378,5.70105380633274,0.5091233404181278
103,0.21482952799999566,267.8832834356362,8.412486994612669,43.07416666666666,1.3674338624338622,54,0.02174745609855944,5.667960804787615,0.5082366696208948
104,0.21642029899999216,267.89708926272715,8.255407361933178,43.07416666666666,1.3674338624338622,63,0.02164734724760158,5.642221803585852,0.5064633280264283
105,0.2186515029999896,267.9170310129697,8.883725892651137,43.09180555555555,1.3679938271604937,67,0.021799894068108797,5.612805802212408,0.510010011215361
106,0.22011082300002727,267.93275431604553,10.22762941668677,43.10944444444444,1.3685537918871251,39,0.021566306749207124,5.571439550281002,0.5055766572291951
107,0.22241751800004295,267.953463056682,12.566370614359172,43.10944444444444,1.3685537918871251,40,0.02123737766748845,5.521800047963317,0.5064633280264283
108,0.2247646690000238,267.99257956677303,12.671090369478833,43.12708333333333,1.3691137566137566,28,0.02112296755210804,5.464806545302269,0.5029166448374957
109,0.22617449900002384,268.00561840347007,10.053096491487338,43.14472222222222,1.369673721340388,36,0.020836942263657017,5.40413604246954,0.5029166448374958
110,0.2276401789999909,268.01635626898525,7.417649320975901,43.14472222222222,1.369673721340388,31,0.02060335494475535,5.338869289422213,0.499369961648563
111,0.22914970900001208,268.02479316331863,5.724679946541401,43.14472222222222,1.369673721340388,41,0.02048417774123409,5.276360286503645,0.4967099492568635
112,0.23063231899999437,268.03284656245506,5.340707511102648,43.16236111111111,1.3702336860670195,59,0.020121879042529458,5.201901033027114,0.49227659527069767
113,0.23223974900002986,268.0416669519854,5.8817595792208905,43.16236111111111,1.3702336860670195,45,0.0199836334864448,5.1219262792930635,0.4851832288928324
114,0.23373830899998893,268.05317180789456,6.876597252857659,43.16236111111111,1.3702336860670195,53,0.019816785401515033,5.037355275344413,0.4834098872983661
115,0.23526714600001242,268.0642931686067,7.400196028455957,43.16236111111111,1.3702336860670195,48,0.019730977814979726,4.94634952109532,0.4834098872983661
116,0.23660937400001103,268.0750310341219,7.749261878854823,43.18,1.3707936507936507,52,0.019301939882303193,4.852586016717468,0.4798632041094335
117,0.2382365330000198,268.0899873468038,9.075712110370514,43.18,1.3707936507936507,43,0.018963476624302814,4.755145512167935,0.4780898625149672
118,0.23961729400002696,268.10379317389476,9.721483933608416,43.18,1.3707936507936507,32,0.018610712101879888,4.657705007618402,0.47365650852880137
119,0.24122627400004149,268.1202834673645,10.22762941668677,43.18,1.3707936507936507,36,0.018334220989710565,4.56486075328347,0.4683364837454024
120,0.24276264500002753,268.13485628484943,9.843656981248019,43.18,1.3707936507936507,38,0.01817213999292165,4.472016498948538,0.46390312975923664
121,0.24423421400001644,268.1482786167434,8.936085770210967,43.18,1.3707936507936507,43,0.018024360260555292,4.381010744699445,0.46124311736753704
122,0.2456131080000432,268.15863298706165,8.063421144213802,43.18,1.3707936507936507,30,0.01804342861311869,4.304712991137075,0.46301645896200333
123,0.2468624230000387,268.16822036698596,7.417649320975901,43.18,1.3707936507936507,43,0.018162605816639952,4.238526988046826,0.4630164589620034
124,0.24836471600002596,268.1785747373042,7.086036763096978,43.18,1.3707936507936507,47,0.018310385549006315,4.197160736115421,0.4639031297592365
125,0.24992462099999102,268.19007959321334,7.487462491055674,43.19763888888889,1.3713536155202821,58,0.018653615895147545,4.175098735085339,0.46656314215093597
