,Time [sec],Motor angle [rad],Motor speed [rad/sec],Linear encoder [mm],Joint angle [rad],Motor current [units],Motor torque [Nm],Force sensor TSA [N],Force sensor handle [N]
0,0.0005667270000913049,234.66876442594238,113.2369618693921,44.09722222222222,1.3999118165784832,12,0.019020681681993022,11.829693926620507,0.6438973015975684
1,0.002062192000039431,234.84593920694317,117.12904610133945,44.18541666666666,1.40271164021164,2,0.018796628539373056,11.916103430654998,0.6438973015975685
2,0.003577251000024262,235.0200460263682,116.29128806038217,44.23833333333333,1.4043915343915343,14,0.018610712101879888,12.001593684646567,0.6394639476114027
3,0.005072437000080754,235.17344410515676,102.4333737995472,44.30888888888889,1.4066313932980599,18,0.018496301986499483,12.0806491883377,0.6341439228280037
4,0.00818761900006848,235.31457033764224,93.65436766201573,44.432361111111106,1.4105511463844795,11,0.018329453901569717,12.128450190569545,0.630597239639071
5,0.009584600000039245,235.58646843229496,93.567101199416,44.485277777777775,1.4122310405643739,-34,0.017909950145174887,12.171654942586793,0.6261638856529053
6,0.01090812100005678,235.70496844815912,83.86307055832754,44.53819444444444,1.413910934744268,15,0.017800307117935323,12.183605193144754,0.6235038732612057
7,0.01227276300005542,235.8127305985081,82.72860654453122,44.57347222222222,1.4150308641975309,-6,0.017576253975315356,12.191878443531037,0.6261638856529053
8,0.016203195999992204,235.9227937200389,75.59020990387441,44.67930555555555,1.418390652557319,4,0.01734743374455454,12.206586444217756,0.6199571900722731
9,0.01763264800001707,236.15250734302475,55.8330827712986,44.73222222222222,1.4200705467372132,-1,0.01714721604263882,12.209344194346514,0.6181838484778067
10,0.019021957000063594,236.23150735360088,57.70058507093253,44.74986111111111,1.4206305114638447,-11,0.0168802591067512,12.18912069340227,0.6146371652888741
11,0.020401909000042906,236.2951675562981,49.41027112395947,44.78513888888889,1.4217504409171076,18,0.016722945198103138,12.180847443015992,0.6066571281137756
12,0.02176052200002232,236.36074523498024,45.65781323217166,44.80277777777778,1.422310405643739,0,0.016475056614778917,12.170735692543872,0.603997115722076
13,0.023016468000037094,236.417502524132,48.36307357276287,44.838055555555556,1.4234303350970017,-10,0.016174730061905344,12.15694694190007,0.5960170785469776
14,0.0242567960000315,236.4593035006019,35.7967029584037,44.855694444444445,1.4239902998236331,18,0.01608415538722919,12.156027691857151,0.5898103829663456
15,0.025586094000004778,236.50225496266268,33.16125578789226,44.855694444444445,1.4239902998236331,5,0.01586486933275007,12.173493442672632,0.5827170165884803
16,0.02708605999998781,236.55479380464777,35.988689176123074,44.87333333333333,1.4245502645502643,-10,0.015612213661285002,12.195555443702714,0.5711902962244492
17,0.028576701000019966,236.5904588579661,25.394540616517496,44.89097222222222,1.4251102292768958,7,0.01549780354590459,12.227729195204917,0.5685302838327496
18,0.030100164000032237,236.61538604576924,17.31366617978375,44.89097222222222,1.4251102292768958,7,0.015321421284693127,12.280126447651366,0.5623235882521176
19,0.03165115500007687,236.63571129120874,12.915436464758038,44.90861111111111,1.4256701940035272,4,0.015130737759059109,12.340796950484096,0.5605502466576513
20,0.033163337000019055,236.64759964231484,8.74409955249159,44.90861111111111,1.4256701940035272,-11,0.01486378082317149,12.407902203617263,0.5578902342659516
21,0.03726891600001636,236.64338119514815,-4.76474885794452,44.90861111111111,1.4256701940035272,-37,0.014468112507480903,12.479603706965033,0.5534568802797859
22,0.03863729099998636,236.6268909016784,-10.995574287564276,44.90861111111111,1.4256701940035272,-31,0.014077211279931175,12.548547460184041,0.5490235262936201
23,0.04000104200008536,236.605415170648,-14.748032179352085,44.89097222222222,1.4251102292768958,-13,0.013733980933789946,12.609217963016768,0.5454768431046875
24,0.04137681899999279,236.57818701166303,-18.884462506578647,44.89097222222222,1.4251102292768958,-33,0.013338312618099367,12.670807715892417,0.5481368554963869
25,0.0426446900000883,236.5448229295265,-24.399702942880726,44.87333333333333,1.4245502645502643,-27,0.012947411390549635,12.710335467737982,0.5437035015102212
26,0.04417097200007447,236.49420156352627,-33.021629447732714,44.87333333333333,1.4245502645502643,-9,0.01271382407164797,12.717689468081344,0.5366101351323558
27,0.045647817000030955,236.4454976735109,-33.073989325292544,44.855694444444445,1.4239902998236331,-32,0.012341991196661642,12.712173967823823,0.5330634519434232
28,0.04705961500008016,236.3933423267228,-34.6273323595675,44.838055555555556,1.4234303350970017,-52,0.011846214030013201,12.704819967480462,0.5259700855655578
29,0.04948923300003116,236.31856076331337,-49.480084294039244,44.80277777777778,1.422310405643739,-14,0.011588791270407277,12.688273466707901,0.5241967439710916
30,0.05113879500004259,236.1843374443734,-53.65142120630569,44.78513888888889,1.4217504409171076,-79,0.010973836900237576,12.662534465506138,0.5179900483904595
31,0.05262557600008222,236.095366558676,-59.72516700324596,44.74986111111111,1.4206305114638447,-40,0.010482826821729989,12.629441463961012,0.5117833528098275
32,0.05402853900000082,236.00677916817563,-61.06907052728159,44.73222222222222,1.4200705467372132,-54,0.009972748390658997,12.601863962673407,0.5091233404181278
33,0.05712378800001261,235.77706554518974,-79.15068157794285,44.64402777777777,1.4172707231040562,-34,0.009562778810545867,12.580721211686244,0.5064633280264283
34,0.05856863200006046,235.6581820341286,-81.80358204097422,44.60875,1.4161507936507938,-29,0.009152809230432733,12.572447961299963,0.5011433032430294
35,0.06000334300006216,235.52779366715833,-88.7674457564316,44.57347222222222,1.4150308641975309,9,0.008895386470826813,12.55773996061324,0.4975966200540967
36,0.06157208600006925,235.384749958688,-97.7558914042024,44.52055555555555,1.4133509700176365,33,0.008800044708009805,12.543951209969439,0.4913899244734646
37,0.06315100300002996,235.24745867817222,-90.80948098126497,44.485277777777775,1.4122310405643739,-4,0.008580758653530687,12.54027420979776,0.48606989969006564
38,0.06464157200002774,235.10786642647463,-84.66592201424493,44.432361111111106,1.4105511463844795,3,0.008385308039755821,12.560497710742004,0.4789765333122004
39,0.06615283000007821,234.98016252588315,-85.27678725244294,44.361805555555556,1.4083112874779542,25,0.008237528307389459,12.593590712287126,0.47454317932603457
40,0.06765598900005898,234.84172075977648,-94.33504607029352,44.29125,1.4060714285714284,56,0.008227994131107757,12.637714714347291,0.4674498129481693
41,0.07220095400009541,234.6104731560027,-85.94001236820078,44.11486111111111,1.4004717813051146,43,0.008261363748093711,12.6928697169225,0.4612431173675371
42,0.07688047800002096,234.1452934820764,-61.80210881311921,43.93847222222222,1.3948721340388006,96,0.008452047273727725,12.744347719326026,0.46212978816477024
43,0.0782650859999876,234.06054104354573,-61.191243574921195,43.885555555555555,1.3931922398589065,79,0.008533087772122182,12.794906471686634,0.46478980055646973
44,0.0796152320000374,233.98767695612113,-55.22221753310059,43.85027777777778,1.3920723104056436,55,0.008571224477248986,12.84270747391848,0.4647898005564698
45,0.08098488100006307,233.92631772460572,-45.65781323217166,43.79736111111111,1.3903924162257495,40,0.008514019419558781,12.879477475635285,0.4647898005564698
46,0.08238118200006284,233.85613810355994,-48.79940588576145,43.76208333333333,1.3892724867724866,76,0.008642730799361743,12.91165122713749,0.46744981294816923
47,0.08388172299999042,233.79669634802937,-43.42379178961892,43.74444444444444,1.3887125220458552,62,0.00862842953493919,12.93647097829633,0.4718831669343351
48,0.08537730200009719,233.7564293523474,-26.26720524251466,43.70916666666666,1.3875925925925925,-2,0.008385308039755823,12.93003622799589,0.47365650852880137
49,0.08689301100002922,233.70197303437746,-36.093408931242735,43.69152777777778,1.3870326278659613,32,0.008323335893924767,12.917166727395008,0.47188316693433513
50,0.08849954600009369,233.65633710593784,-29.304078140984792,43.67388888888889,1.3864726631393298,14,0.0081088169275865,12.892346976236167,0.47454317932603457
51,0.09000840200008042,233.62258952860435,-21.83406894244906,43.67388888888889,1.3864726631393298,-16,0.007784654934008674,12.860173224733963,0.4727698377315682
52,0.09137347800003681,233.5804050569375,-29.49606435870417,43.67388888888889,1.3864726631393298,5,0.007551067615107004,12.826160973145917,0.4763165209205009
53,0.09274300100003074,233.53553611889186,-32.49803067213442,43.65625,1.3859126984126984,4,0.007331781560627887,12.797664221815394,0.4772031917177341
54,0.09700252800007547,233.40361377113368,-31.869712141416457,43.65625,1.3859126984126984,-1,0.007036222095895164,12.75905572001275,0.4692231545426357
55,0.09835505500007002,233.3510749291486,-37.978364523396614,43.65625,1.3859126984126984,31,0.006926579068655605,12.724124218381787,0.46567647135370294
56,0.09973946800005251,233.3065894862999,-34.29571980168858,43.65625,1.3859126984126984,25,0.006797867688852644,12.689192716750822,0.45769643417860445
57,0.10112196900001891,233.26440501463307,-29.670597283903604,43.63861111111111,1.385352733686067,8,0.006564280369950976,12.658857465334457,0.45148973859797237
58,0.10262152200004948,233.20841471587525,-36.82644721708035,43.63861111111111,1.385352733686067,36,0.006521376576683322,12.635876214261454,0.444396372220107
59,0.10414781000008588,233.15779334987502,-35.22074430524557,43.62097222222222,1.3847927689594355,46,0.006511842400401622,12.626683713832254,0.43907634743670804
60,0.10568465400001514,233.11675936379908,-27.436575841350862,43.60333333333333,1.3842328042328043,2,0.006449870254570567,12.62116821357473,0.43109631026160955
61,0.1071561340000926,233.0707399401625,-29.81022362406315,43.58569444444444,1.3836728395061728,35,0.006354528491753558,12.631279964046852,0.42400294388374443
62,0.10886621100007687,233.02433702132896,-31.60791275361731,43.55041666666666,1.38255291005291,67,0.006583348722514378,12.657018965248618,0.41956958989757853
63,0.11036908900007347,232.98138555926818,-24.958208303518912,43.532777777777774,1.3819929453262785,35,0.006654855044627134,12.674484716064104,0.41602290670864583
64,0.11174514300000737,232.95377390508622,-20.769418098732523,43.497499999999995,1.3808730158730158,36,0.006516609488542473,12.702981467394626,0.41070288192524684
65,0.11323064800001248,232.92692924129824,-18.081611050661255,43.479861111111106,1.3803130511463844,17,0.00648323987155652,12.716770218038425,0.4133628943169463
66,0.11462194700004602,232.90276904388904,-17.41838593490341,43.444583333333334,1.3791931216931217,1,0.006268720905218252,12.706658467566307,0.41602290670864583
67,0.11598756400007915,232.87669137049497,-18.517943363659835,43.426944444444445,1.3786331569664902,19,0.006163844966119544,12.69011196679374,0.4177962483031121
68,0.11736333900000773,232.8483127259191,-20.45525883337354,43.391666666666666,1.3775132275132276,30,0.006140009525415292,12.680000216321622,0.4186829191003453
69,0.1186473580000893,232.82338553811596,-20.45525883337354,43.374027777777776,1.3769532627865961,36,0.006006531057471481,12.645987964733576,0.422229602289278
70,0.12011590800000249,232.7984583503128,-17.121679962064373,43.35638888888889,1.3763932980599647,31,0.006073270291443386,12.592671462244208,0.4257762854782106
71,0.12165775900007247,232.78043407605514,-12.618730491919003,43.32111111111111,1.3752733686067018,16,0.00611140699657019,12.52188920893936,0.43198298105884275
72,0.12311874200008788,232.7639437825854,-10.733774899765127,43.30347222222222,1.3747134038800704,5,0.005820614619978316,12.456622455892031,0.44084968903117444
73,0.1246496810000508,232.7432350419489,-13.316862192716734,43.30347222222222,1.3747134038800704,9,0.0057967791792740645,12.381243952372579,0.4479430554090398
74,0.126245094000069,232.71523989257,-16.982053621904825,43.28583333333333,1.3741534391534391,19,0.00588735385395022,12.318734949454013,0.45326308019243866
75,0.1277524939999921,232.68686124799413,-18.95427567665842,43.26819444444444,1.3735934744268077,41,0.005744341209724711,12.270014697179244,0.4585831049758377
76,0.13051575700001194,232.65886609861522,-17.54055898254301,43.25055555555555,1.3730335097001762,35,0.005820614619978316,12.22037519486156,0.47010982533986884
77,0.13219113299999208,232.62703599726657,-11.309733552923255,43.25055555555555,1.3730335097001762,19,0.0057824779148515125,12.166139442329273,0.4754298501232677
78,0.13362862899998618,232.60901172300893,-10.85594794740473,43.23291666666666,1.3724735449735448,-1,0.005601328565499199,12.116499940011586,0.48429655809559935
79,0.1351263620000509,232.58868647756944,-12.985249634837812,43.23291666666666,1.3724735449735448,-4,0.00549168553825964,12.057667937264696,0.4913899244734647
80,0.13686390800000936,232.5595408425996,-16.441001553786585,43.21527777777778,1.3719135802469136,14,0.0054297133924285845,12.00343218473241,0.4975966200540968
81,0.13823270099999263,232.53346316920556,-18.709929581379214,43.21527777777778,1.3719135802469136,10,0.005324837453329876,11.960227432715167,0.5038033156347289
82,0.13946819200009486,232.50930297179636,-19.338248112097173,43.19763888888889,1.3713536155202821,16,0.005448781744991985,11.930811431341722,0.514443365201527
83,0.14090103300009105,232.48437578399322,-18.500490071139893,43.19763888888889,1.3713536155202821,41,0.005615629829921749,11.906910930225798,0.5224234023766254
84,0.1423682210000834,232.45944859619007,-16.912240451825053,43.18,1.3707936507936507,27,0.005477384273837087,11.901395429968277,0.5339501227406565
85,0.1439798740000242,232.43413791318997,-15.515977050229589,43.16236111111111,1.3702336860670195,13,0.005458315921273688,11.904153180097039,0.5419301599157549
86,0.14549515200008045,232.4107447061747,-15.742869852988852,43.16236111111111,1.3702336860670195,7,0.0055059868026821925,11.914264930569159,0.5525702094825529
87,0.14899909600001138,232.34593401788655,-19.687313962496038,43.14472222222222,1.369673721340388,7,0.0053296045414707284,11.923457430998358,0.557890234265952
88,0.15059437500008244,232.30950197417425,-22.287854547967587,43.12708333333333,1.3691137566137566,33,0.00535820707031583,11.943680931942602,0.5649836006438173
89,0.1519673480000847,232.27958934881048,-21.78170906488923,43.12708333333333,1.3691137566137566,25,0.005434480480569434,11.956550432543484,0.5703036254272162
90,0.15334257900008197,232.25466216100733,-19.565140914856435,43.10944444444444,1.3685537918871251,29,0.005553657684090694,11.955631182500568,0.5756236502106152
91,0.15471586800003934,232.23356992517392,-15.236724369910498,43.10944444444444,1.3685537918871251,-10,0.005262865307498821,11.952873432371803,0.5809436749940142
92,0.15608316600003036,232.21056021335562,-16.14429558094755,43.10944444444444,1.3685537918871251,4,0.00524379695493542,11.94000393177092,0.58537702898018
93,0.1574597700000595,232.18218156877975,-19.9142067652553,43.10944444444444,1.3685537918871251,11,0.005320070365189025,11.920699680869598,0.590697053763579
94,0.15871337400005814,232.1534194290069,-22.67182698340634,43.09180555555555,1.3679938271604937,21,0.005248564043076271,11.891283679496155,0.5960170785469779
95,0.16009380500008774,232.12273981324918,-22.636920398366453,43.09180555555555,1.3679938271604937,30,0.00523902986679457,11.857271427908113,0.6031104449248432
96,0.16146173000004183,232.0970456350521,-19.54768762233649,43.09180555555555,1.3679938271604937,2,0.00524379695493542,11.822339926277147,0.6031104449248431
97,0.16312553300008403,232.06943398087014,-16.929693744344995,43.07416666666666,1.3674338624338622,1,0.005219961514231168,11.786489174603261,0.6057704573165427
98,0.16472843700000794,232.0364533939306,-19.75712713257581,43.07416666666666,1.3674338624338622,8,0.005191358985386065,11.733172672113895,0.6093171405054754
99,0.16624366600001395,232.00155533100622,-23.020892833805206,43.056527777777774,1.366873897707231,2,0.0050626476055831045,11.679856169624527,0.6164105068833408
100,0.16825316000006296,231.95515241217268,-23.160519173964754,43.038888888888884,1.3663139329805996,22,0.0051103184869916085,11.625620417092236,0.6243905440584391
101,0.16971944400006578,231.92332231082403,-21.34537675189065,43.038888888888884,1.3663139329805996,-7,0.005067414693723955,11.577819414860391,0.6297105688418381
102,0.17284738099999686,231.86311356489952,-19.11135530933791,43.021249999999995,1.365753968253968,-2,0.004991141283470349,11.528179912542708,0.6332572520307708
103,0.17422712200004753,231.83320093953577,-21.066124071571558,43.003611111111105,1.3651940035273367,0,0.004905333696935043,11.48497516052546,0.640350618408636
104,0.17558576400006132,231.79830287661136,-24.88839513343914,42.98597222222222,1.3646340388007054,12,0.004910100785075893,11.453720659066173,0.6456706431920352
105,0.1769721410000784,231.76378830888393,-25.499260371637156,42.968333333333334,1.364074074074074,37,0.0052485640430762715,11.41327365717769,0.6536506803671337
106,0.17835541500005547,231.73579315950502,-21.589722847169856,42.968333333333334,1.364074074074074,41,0.005372508334738381,11.383857655804247,0.6589707051505325
107,0.17971708400000352,231.7131669428837,-16.929693744344995,42.950694444444444,1.3635141093474428,2,0.005410645039865183,11.352603154344965,0.661630717542232
108,0.18114068099998804,231.68747276468662,-17.662732030182614,42.933055555555555,1.3629541446208113,-7,0.005358207070315828,11.324106403014442,0.6713840963117969
109,0.1825998140000138,231.6502737305804,-23.928464044842258,42.933055555555555,1.3629541446208113,11,0.005415412128006032,11.300205901898519,0.6775907918924289
110,0.18407959400008167,231.61077372529235,-26.47664475275398,42.915416666666665,1.3623941798941799,38,0.005648999446907701,11.277224650825515,0.6837974874730611
111,0.18548702700002195,231.5816280903225,-22.61946710584651,42.897777777777776,1.3618342151675484,16,0.005639465270626,11.255162649795432,0.6944375370398589
112,0.18728243999998995,231.55516692173148,-16.475908138826473,42.88013888888889,1.361274250440917,2,0.005648999446907701,11.23310064876535,0.7024175742149573
113,0.18884724300005473,231.52103584920104,-19.00663555421825,42.8625,1.3607142857142855,-1,0.005691903240175355,11.216554147992783,0.7130576237817553
114,0.19621286300002794,231.42017661239757,-22.968532956245376,42.79194444444444,1.35847442680776,12,0.005663300711330254,11.201846147306062,0.7236976733485534
115,0.19772542600003362,231.3281377651244,-19.65240737745615,42.79194444444444,1.35847442680776,-2,0.005629931094344303,11.187138146619343,0.7334510521181181
116,0.19907481600000665,231.29707465416973,-21.78170906488923,42.77430555555555,1.3579144620811285,6,0.005706204504597908,11.171510895889702,0.7467511140766157
117,0.2004426290000083,231.26179309604836,-25.272367568877893,42.75666666666667,1.3573544973544973,0,0.005672834887611955,11.158641395288818,0.7556178220489475
118,0.20196190400008618,231.22459406194213,-25.237460983838005,42.73902777777778,1.3567945326278659,18,0.005725272857161309,11.146691144730857,0.765371200818512
119,0.20363791099998707,231.1942979413814,-20.874137853852183,42.72138888888889,1.3562345679012346,18,0.005792012091133213,11.142094894516259,0.7751245795880766
120,0.2051255270000638,231.16285133522973,-18.95427567665842,42.70375,1.3556746031746032,-3,0.0058301487962600165,11.134740894172895,0.7848779583576415
121,0.20660655000006045,231.12565230112352,-24.015730507441976,42.68611111111111,1.3551146384479718,13,0.006068503203302536,11.135660144215818,0.7946313371272062
122,0.20808404500007782,231.08653579103242,-26.284658535034602,42.66847222222222,1.3545546737213403,11,0.006268720905218251,11.141175644473336,0.8017247035050716
123,0.20965240000009544,231.05393869928986,-22.56710722828668,42.65083333333333,1.3539947089947089,-6,0.006302090522204204,11.153125895031298,0.8114780822746365
