,Time [sec],Motor angle [rad],Motor speed [rad/sec],Linear encoder [mm],Joint angle [rad],Motor current [units],Motor torque [Nm],Force sensor TSA [N],Force sensor handle [N]
0,0.001089546999992308,269.6845603758109,0.2792526803190927,44.926249999999996,1.4262301587301587,57,0.023063172425434146,16.813867659333404,0.38498942880548526
1,0.0037100859999554814,269.67995843344727,-2.3387411976724017,44.926249999999996,1.4262301587301587,1,0.02285342054723673,16.790886408260402,0.4142495651141796
2,0.006205310000041209,269.66461862556844,-7.225663103256524,44.926249999999996,1.4262301587301587,-16,0.02252449146551806,16.77158215735908,0.4390763474367081
3,0.0087307349999719,269.6339390098107,-13.316862192716734,44.926249999999996,1.4262301587301587,-17,0.02216695985495427,16.74768165624316,0.4674498129481693
4,0.010555973000009544,269.6005749276742,-16.89478715930511,44.90861111111111,1.4256701940035272,-13,0.02181419533253135,16.719184904912634,0.4958232784596305
5,0.011911081000107515,269.5729632734923,-19.460421159736775,44.90861111111111,1.4256701940035272,-27,0.021432828281263316,16.68793040345335,0.5162167067959932
6,0.013401061999957165,269.53844870576484,-22.357667718047363,44.90861111111111,1.4256701940035272,-18,0.021142035904671442,16.6539181518653,0.5410434891185217
7,0.014935129000150482,269.49703122449193,-26.546457922833753,44.89097222222222,1.4251102292768958,-9,0.020846476439938724,16.61806740019142,0.564096929846584
8,0.016388448999805405,269.4410409257341,-36.05850234620285,44.89097222222222,1.4251102292768958,-2,0.020546149887065143,16.583135898560457,0.586263699777413
9,0.017759727999873576,269.39041955973386,-38.29252378875559,44.87333333333333,1.4245502645502643,-15,0.020221987893487323,16.542688896671972,0.6102038113027085
10,0.019148255999880348,269.3444001360973,-32.969269570172884,44.855694444444445,1.4239902998236331,-45,0.019821552489655888,16.511434395212685,0.6288238980446049
11,0.023155997000230855,269.26578362071814,-50.03858965467743,44.80277777777778,1.422310405643739,3,0.019635636052162724,16.481099143796325,0.6527640095699002
12,0.024624662999940483,269.053327281596,-65.65928646002668,44.78513888888889,1.4217504409171076,-72,0.019044517122697273,16.45076389237996,0.6696107547173302
13,0.026003675000083604,268.9609049391259,-65.69419304506657,44.74986111111111,1.4206305114638447,-75,0.018453398193231826,16.419509390920677,0.6882308414592266
14,0.02729026699989845,268.8611961879133,-79.34266779566222,44.71458333333333,1.419510582010582,-28,0.018143537464076553,16.38825488946139,0.7059642574038899
15,0.02878606900003433,268.7350262681097,-79.51720072086165,44.67930555555555,1.418390652557319,-57,0.017662061561850663,16.355161887916264,0.7236976733485533
16,0.030131905999951414,268.6226621753971,-81.96066167365372,44.64402777777777,1.4172707231040562,-11,0.01730452995128688,16.324826636499903,0.7369977353070506
17,0.031542467000235774,268.4918903132299,-96.4643477577266,44.60875,1.4161507936507938,6,0.017085243896807763,16.306441635641498,0.749411126468315
18,0.03304754900000262,268.34002621522916,-98.17477042468104,44.55583333333333,1.4144708994708994,6,0.016927929988159705,16.293572135040616,0.7635978592240457
19,0.03464514999996027,268.18777862203154,-93.2005820564972,44.502916666666664,1.412791005291005,9,0.01673724646252569,16.28621813469726,0.7760112503853099
20,0.03616325299981327,268.0550892838794,-87.30136918475637,44.449999999999996,1.411111111111111,-6,0.016455988262215518,16.294491385083536,0.7857646291548747
21,0.037618620000102965,267.92431742171215,-88.5230996611524,44.397083333333335,1.4094312169312169,43,0.01639878320452531,16.30460313555566,0.7964046787216725
22,0.03905049000013605,267.7996814826965,-93.44492815177641,44.344166666666666,1.4077513227513228,50,0.016451221174074663,16.31655338611362,0.8070447282884707
23,0.040918644000157656,267.64666689910484,-97.24974592112405,44.27361111111111,1.4055114638447972,51,0.016451221174074663,16.328503636671584,0.8167981070580353
24,0.042528800000127376,267.47102609889197,-97.70353152664256,44.20305555555555,1.4032716049382714,47,0.01637971485196191,16.340453887229543,0.8247781442331339
25,0.04416250800022681,267.3375697703459,-80.52949168701836,44.1325,1.401031746031746,0,0.016198565502609598,16.353323387830425,0.8380782061916315
26,0.04568762899998546,267.2213707256636,-77.09119306058953,44.06194444444444,1.3987918871252203,21,0.016069854122806638,16.37354688877467,0.8531516097445951
27,0.04713994800022192,267.1005697386176,-83.5663645854885,44.009027777777774,1.3971119929453262,72,0.01612229209235599,16.402043640105195,0.8673383425003257
28,0.04863869400014664,266.98322020834433,-77.14355293814937,43.956111111111106,1.3954320987654318,24,0.016046018682102387,16.433298141564475,0.8815250752560564
29,0.04999709999992774,266.8846619427227,-73.0420291959627,43.903194444444445,1.393752204585538,27,0.015903006037876876,16.46547189306668,0.9001451619979528
30,0.05125002400018275,266.7815017347374,-79.95353303386024,43.867916666666666,1.392632275132275,45,0.015831499715764117,16.509595895126846,0.9196519195370825
31,0.052483776999906695,266.6982832769946,-68.53907972581732,43.815,1.390952380952381,24,0.01573139086480626,16.548204396929492,0.9373853354817456
32,0.05374684600019464,266.60854540090327,-75.101517713316,43.77972222222222,1.389832451499118,26,0.015669418718975203,16.593247649032577,0.9568920930208752
33,0.055151349999960075,266.51880752481196,-62.6049602690366,43.72680555555555,1.388152557319224,0,0.015464433928918638,16.63829090113566,0.9790588629517042
34,0.05652614300015557,266.4283026583267,-67.84094802501959,43.67388888888889,1.3864726631393298,14,0.01532618837283398,16.687011153410428,1.0012256328825333
35,0.058008194000194635,266.32974439270504,-63.28563867731439,43.62097222222222,1.3847927689594355,-15,0.015002026379256152,16.726538905255993,1.0260524152050619
36,0.05938279700012572,266.23310360306823,-73.46090821644133,43.60333333333333,1.3842328042328043,27,0.014882849175734892,16.766066657101558,1.0491058559331239
37,0.06075742299981357,266.1330113566587,-67.91076119509937,43.56805555555555,1.3831128747795414,-16,0.014596823887283868,16.801917408775445,1.0748193090528857
38,0.062144427000021096,266.0375210526128,-72.50097712784445,43.515138888888885,1.381432980599647,18,0.014496715036326008,16.83960666053517,1.097872749780948
39,0.06364321000000928,265.9182540463547,-79.88371986378047,43.46222222222222,1.3797530864197531,16,0.014325099863255395,16.879134412380736,1.125359544495176
40,0.06517412599987438,265.820846266324,-65.20550085450814,43.426944444444445,1.3786331569664902,-9,0.013996170781536721,16.908550413754185,1.1510729976149376
41,0.0665554060001341,265.72075401991447,-73.49581480148122,43.391666666666666,1.3775132275132276,-3,0.013795953079621006,16.932450914870103,1.1776731215319323
42,0.06786638199992012,265.62296274468673,-66.20033852814493,43.35638888888889,1.3763932980599647,-19,0.013452722733479779,16.952674415814343,1.2016132330572278
43,0.06912318100012271,265.53514234458027,-75.74728953655391,43.32111111111111,1.3752733686067018,6,0.013262039207845765,16.971978666715664,1.2282133569742228
44,0.07048699500001021,265.4239287374586,-77.40535232594851,43.28583333333333,1.3741534391534391,-3,0.013061821505930044,16.97933266705903,1.250380126905052
45,0.07173976600006426,265.3292054238066,-78.2431103669058,43.25055555555555,1.3730335097001762,-7,0.012775796217479023,16.98209041718779,1.2752069092275804
46,0.07296465299987176,265.2206762830637,-81.2276233878161,43.21527777777778,1.3719135802469136,-9,0.01244686713576035,16.97565566688735,1.2929403251722436
47,0.07421490300021105,265.12518597901783,-81.873395211054,43.18,1.3707936507936507,14,0.012303854491534838,16.961866916243547,1.315107095103073
48,0.07565668400002323,265.0174238286689,-80.54694497953831,43.14472222222222,1.369673721340388,-2,0.012098869701478271,16.937047165084703,1.3337271818449694
49,0.07709169200006727,264.9142636206836,-72.13445798492565,43.09180555555555,1.3679938271604937,-23,0.01171273556206939,16.89384241306746,1.3523472685868656
50,0.07867901899999197,264.7915451576527,-75.38077039363509,43.038888888888884,1.3663139329805996,-13,0.011417176097336666,16.850637661050214,1.3718540261259953
51,0.08028137700011939,264.65847232430366,-84.50884238156544,42.98597222222222,1.3646340388007054,7,0.011274163453111153,16.803755908861287,1.3913607836651247
52,0.08176928500006397,264.5238655101667,-89.06415172927063,42.933055555555555,1.3629541446208113,23,0.011183588778434995,16.743085406028555,1.4055475164208553
53,0.08324672200023997,264.38887520083273,-87.03956979695721,42.88013888888889,1.361274250440917,-6,0.010973836900237576,16.68057640310999,1.4197342491765859
54,0.08463360599989755,264.27574411772616,-86.44615785127914,42.84486111111111,1.3601543209876543,41,0.010935700195110774,16.6217444003631,1.442787689904648
55,0.0859888290001436,264.1603120634378,-83.23475202760957,42.79194444444444,1.35847442680776,6,0.010687811611786556,16.55647764731577,1.4614077766465445
56,0.08735026800013657,264.0552343794676,-74.10668003967923,42.75666666666667,1.3573544973544973,0,0.010525730614997642,16.48661464405384,1.4809145341856742
57,0.08871830199996111,263.9467052387247,-82.37954069413236,42.68611111111111,1.3551146384479718,21,0.010454224292884888,16.418590140877754,1.4977612793331045
58,0.0901130010001907,263.83050619404236,-83.06021910241014,42.63319444444444,1.3534347442680774,17,0.010258773679110022,16.349646387658744,1.516381366075001
59,0.09149937900019722,263.7227440436934,-77.98131097910664,42.58027777777777,1.3517548500881833,23,0.010201568621419816,16.283460384568496,1.5305680988307315
60,0.09286245800012694,263.60616150381406,-88.7674457564316,42.544999999999995,1.3506349206349204,42,0.01020633570956067,16.215435881392406,1.5483015147753947
61,0.09422940000013114,263.4930304207075,-77.77187146886733,42.49208333333333,1.3489550264550265,-1,0.009896474980405393,16.151088378387996,1.5686949431117574
62,0.09559794500000862,263.3967731262677,-71.61085920932734,42.439166666666665,1.3472751322751322,21,0.009701024366630529,16.09593337581279,1.5811083342730214
63,0.09698794499990981,263.2901614615096,-78.87142889762376,42.38625,1.345595238095238,-1,0.009424533254461206,16.044455373409264,1.5961817378259853
64,0.09839962300020488,263.1900692151001,-71.12216701876893,42.35097222222222,1.3444753086419752,-3,0.00923384972882719,16.0003313713491,1.6139151537706484
65,0.09988527599989538,263.07310318002385,-80.86110424489729,42.29805555555556,1.342795414462081,20,0.009081302908319978,15.964480619675214,1.6298752281208457
66,0.10186099000020477,262.91625364446253,-82.34463410909247,42.2275,1.3405555555555555,25,0.00889538647082681,15.92862986800133,1.6511553272544415
67,0.10312184900021748,262.81309343647723,-78.0860307342263,42.19222222222222,1.3394356261022926,15,0.008738072562178748,15.889102116155765,1.669775413996338
68,0.10447337000005064,262.71491866605254,-76.026542216873,42.13930555555555,1.3377557319223985,16,0.008614128270516637,15.846816614181442,1.6866221591437682
69,0.10585175999995045,262.61597690523394,-68.74851923605664,42.10402777777777,1.3366358024691356,3,0.008366239687192419,15.808208112378793,1.7061289166828977
70,0.10711390300002677,262.5358264090669,-69.28957130417488,42.068749999999994,1.335515873015873,3,0.008104049839445649,15.76959961057615,1.7274090158164936
71,0.10833558100011942,262.43650115305127,-74.56046564519775,42.03347222222222,1.3343959435626103,-10,0.007870462520543981,15.733748858902263,1.7415957485722242
72,0.10960803599982682,262.3498312385357,-69.83062337229312,41.998194444444444,1.3332760141093474,-11,0.007651176466064864,15.705252107571742,1.7611025061113537
73,0.11096345399982965,262.239384621808,-80.93091741497706,41.945277777777775,1.3315961199294533,4,0.007369918265754691,15.682270856498738,1.7797225928532503
74,0.11224669200009885,262.14619528894394,-74.26375967235872,41.91,1.3304761904761904,-9,0.0070791258891628175,15.662047355554495,1.801002691986846
75,0.11360392799997499,262.0288457586707,-87.03956979695721,41.87472222222222,1.3293562610229275,25,0.007021920831472612,15.650097104996533,1.822282791120442
76,0.11501905800014356,261.9241515698975,-73.26892199872195,41.83944444444444,1.3282363315696648,0,0.006845538570261147,15.645500854781933,1.8391295362678721
77,0.11651134400017327,261.8206078667152,-69.3768377667746,41.78652777777778,1.3265564373897707,-22,0.006535677841105873,15.650097104996533,1.8586362938070016
78,0.11801008300017202,261.7067097932147,-77.00392659798982,41.73361111111111,1.3248765432098766,10,0.006316391786626755,15.653774105168216,1.877256380548898
79,0.11947162900014519,261.58936026294145,-74.94443808063652,41.69833333333333,1.3237566137566137,-26,0.005920723470936173,15.661128105511573,1.8932164548990948
80,0.12084515000015017,261.48773403574404,-75.8694625841935,41.66305555555555,1.3226366843033508,-5,0.005715738680879606,15.666643605769096,1.915383224829924
81,0.12222595000002912,261.3700010102738,-87.80751466783472,41.61013888888888,1.3209567901234567,15,0.005577493124794945,15.672159106026614,1.931343299180121
82,0.12358846999995876,261.2480495376369,-84.14232323864663,41.57486111111111,1.319836860670194,2,0.005305769100766473,15.677674606284135,1.9428700195441522
83,0.12482849800016993,261.15064175760614,-83.4441915378489,41.55722222222222,1.3192768959435626,27,0.005210427337949467,15.682270856498738,1.9535100691109506
84,0.1261258760000601,261.05016601599965,-77.70205829878755,41.504305555555554,1.3175970017636685,4,0.0050435792530197044,15.684109356584578,1.967696801866681
85,0.12746865400004026,260.95352522636284,-71.69812567192706,41.469027777777775,1.3164770723104056,-15,0.004686047642455925,15.674916856155377,1.9818835346224113
86,0.12870481200025097,260.8507485135745,-82.46680715673207,41.433749999999996,1.3153571428571427,0,0.00450489829310361,15.670320605940777,1.9934102549864425
87,0.13023447800014765,260.7314815073164,-76.95156672043,41.38083333333333,1.3136772486772486,6,0.004333283120032997,15.671239855983696,2.0067103169449396
88,0.13162218700017547,260.62525333775534,-79.6568270610212,41.32791666666667,1.3119973544973544,9,0.004075860360427076,15.669401355897858,2.017350366511738
89,0.13299376399982066,260.5056028363002,-84.40412262644578,41.29263888888889,1.3108774250440918,24,0.003923313539919864,15.673997606112458,2.0271037452813023
90,0.13434666900002412,260.4028261235119,-74.52555906015787,41.23972222222222,1.3091975308641974,5,0.0037326300142858488,15.673997606112458,2.0377437948481005
91,0.13556929100013804,260.3092532954509,-80.65166473465797,41.18680555555555,1.3075176366843033,29,0.003651589515891392,15.675836106198298,2.047497173617665
92,0.13683412599993972,260.2152969721929,-70.86036763096978,41.15152777777777,1.3063977072310404,0,0.003384632580003771,15.673078356069539,2.056363881589997
93,0.13811403599993355,260.1270930768895,-73.67034772668065,41.11625,1.3052777777777778,20,0.0033226604341727163,15.678593856327058,2.067890601954028
94,0.13977626299993062,260.00399111866165,-74.00196028455957,41.08097222222222,1.304157848324515,-6,0.0030938402034118976,15.674916856155376,2.079417322318059
95,0.14146997299985742,259.8793551796459,-68.78342582109653,41.028055555555554,1.3024779541446208,-2,0.002836417443805977,15.672159106026616,2.088284030290391
96,0.14302043099996808,259.76775807732724,-76.98647330546987,40.975138888888885,1.3007980599647264,32,0.0027982807386791736,15.673078356069537,2.095377396668256
97,0.14460500699988188,259.64427262390245,-76.7944870877505,40.93986111111111,1.2996781305114637,28,0.002669569358876213,15.672159106026617,2.1042441046405878
98,0.14586045199985165,259.5668065941142,-65.95599243286571,40.90458333333333,1.2985582010582009,8,0.002540857979073253,15.671239855983696,2.1175441665990853
99,0.14720431400019152,259.4736172612502,-64.89134158914918,40.869305555555556,1.2974382716049382,-5,0.0023168048364532855,15.664805105683255,2.128184216165883
100,0.14859855600025185,259.3926997746892,-61.418136377680455,40.83402777777778,1.2963183421516755,-6,0.0020164782835797113,15.685947856670419,2.1148841542073855
101,0.14997120899988658,259.2933745186736,-71.2268867738886,40.79875,1.2951984126984126,5,0.002035546636143113,15.69514035709962,2.097150738262722
102,0.15131427899996197,259.2051706233702,-62.41297405131723,40.76347222222222,1.2940784832451497,-9,0.002068916253129065,15.6988173572713,2.077643980723593
103,0.1525644100001955,259.113898766491,-73.4085483388815,40.72819444444444,1.292958553791887,19,0.0022405314261996793,15.70249435744298,2.0599105647789298
104,0.15382012400004896,259.0310638039452,-67.42206900454094,40.69291666666666,1.2918386243386242,20,0.0023978453348477416,15.699736607314222,2.041290478037033
105,0.1552706180000314,258.9244521391871,-73.67034772668065,40.65763888888889,1.2907186948853615,31,0.002674336447017064,15.691463356927938,2.029763757673002
106,0.15672426199989786,258.8362482438837,-61.418136377680455,40.62236111111111,1.2895987654320988,23,0.0028697870607919296,15.678593856327055,2.0102570001338727
107,0.15824415099996259,258.738456968656,-66.67157742618339,40.58708333333333,1.288478835978836,73,0.003260688288341661,15.655612605254053,1.991636913391976
108,0.15970786400021098,258.6659763764284,-47.40314248416599,40.55180555555555,1.287358906525573,-7,0.0032368528476374087,15.632631354181047,1.979223522230712
109,0.16107681299990873,258.58889384183715,-56.65338751973594,40.516527777777775,1.2862389770723104,47,0.0035324123123701323,15.609650103108047,1.9614901062860488
110,0.16258594300006735,258.5179472303974,-48.03146101488395,40.481249999999996,1.2851190476190475,21,0.0038470401296662586,15.57931485169168,1.9481900443275513
111,0.16395418599995537,258.4470006189577,-50.300389042476574,40.44597222222222,1.2839991181657846,54,0.004090161624849626,15.54438335006072,1.9348899823690535
112,0.1653233970000656,258.38640837783623,-47.420595776685936,40.428333333333335,1.2834391534391534,52,0.004681280554315074,15.509451848429755,1.926909945193955
113,0.16669914300018718,258.32811710789656,-40.28219913602913,40.393055555555556,1.2823192239858907,32,0.0051913589853860645,15.474520346798789,1.9171565664243906
114,0.16794190800010256,258.2728937995327,-45.69271981721155,40.375416666666666,1.2817592592592593,74,0.005677601975752804,15.433154094867382,1.9109498708437584
115,0.1693322609999086,258.2234229191234,-38.04817769347638,40.34013888888889,1.2806393298059964,43,0.0061543107898378415,15.389949342850139,1.9020831628714268
116,0.17055413600019165,258.1827724282444,-31.677725923697082,40.3225,1.280079365079365,35,0.00637359684431696,15.345825340789972,1.8985364796824942
117,0.17183788500005903,258.1363695094109,-36.54719453676126,40.30486111111111,1.2795194003527337,55,0.006607184163218629,15.287912588086005,1.8967631380880277
118,0.1730895910000072,258.0968695041228,-33.73721444105039,40.28722222222222,1.2789594356261023,52,0.006826470217697746,15.224484335124517,1.8941031256963279
119,0.1743146759999945,258.06427241238026,-27.244589623631484,40.25194444444444,1.2778395061728394,35,0.006950414509359857,15.150025081647989,1.8941031256963279
120,0.1755765859998064,258.0366607581983,-22.951079663725434,40.25194444444444,1.2778395061728394,5,0.00700285247890921,15.063615577613495,1.8985364796824937
121,0.17700117200001841,258.00904910401636,-20.38544566329377,40.23430555555555,1.277279541446208,10,0.006845538570261148,14.9680135731498,1.898536479682494
122,0.17863767700009703,257.97453453628896,-20.909044438892067,40.21666666666666,1.2767195767195765,4,0.006626252515782032,14.874250068771948,1.899423150479727
123,0.18011761600018872,257.93695200698573,-24.661502330679877,40.19902777777778,1.2761596119929455,1,0.006387898108739512,14.778648064308257,1.9056298460603591
124,0.18163555299997824,257.8993694776825,-25.342180738957666,40.18138888888889,1.275599647266314,-8,0.006125708260992739,14.678449809629962,1.9047431752631263
