,Time [sec],Motor angle [rad],Motor speed [rad/sec],Linear encoder [mm],Joint angle [rad],Motor current [units],Motor torque [Nm],Force sensor TSA [N],Force sensor handle [N]
0,0.0011617799991654465,212.7742566404506,0.0,41.39847222222222,1.31423721340388,54,0.023506511622533224,15.970915369975655,1.6857355018727553
1,0.0038643219995719846,212.77655761163243,1.1693705988362009,41.38083333333333,1.3136772486772486,-72,0.022905858516786077,16.051809373752626,1.7185423348966027
2,0.006357137999657425,212.75316440461717,-9.320058205649719,41.38083333333333,1.3136772486772486,83,0.023077473689856697,16.13913812783004,1.753122509514916
3,0.008844500998748117,212.75354789981415,-0.5934119456780721,41.38083333333333,1.3136772486772486,31,0.02307747368985669,16.23657863237957,1.7859293425387637
4,0.010440394999022828,212.75201391902627,-0.5585053606381855,41.38083333333333,1.3136772486772486,56,0.023115610394983496,16.342292387315386,1.8258295419404766
5,0.011937854998905095,212.75316440461717,0.6457718232379019,41.38083333333333,1.3136772486772486,55,0.02312991165940605,16.45076389237996,1.8621830581532566
6,0.01344115400024748,212.7543148902081,0.8552113334772214,41.38083333333333,1.3136772486772486,68,0.023220486334082205,16.559235397444535,1.8967632327715702
7,0.014938843998606899,212.75776634698084,2.1467549799530254,41.38083333333333,1.3136772486772486,72,0.02341116985971622,16.658514402079906,1.9295700657954178
8,0.016434209999715677,212.76313527973844,3.5081117965086026,41.38083333333333,1.3136772486772486,76,0.023482676181828976,16.748600906286075,1.964150240413731
9,0.01793877799900656,212.7715721740718,5.305800926062762,41.38083333333333,1.3136772486772486,84,0.023644757178617894,16.820302409633847,1.9951837318431125
10,0.019425102000241168,212.78461101076883,8.168140899333462,41.38083333333333,1.3136772486772486,75,0.0237400989414349,16.872699662080294,2.02799056486696
11,0.02081187600015255,212.80186829463256,11.780972450961725,41.38083333333333,1.3136772486772486,68,0.023816372351688507,16.90855041375418,2.0643440810797395
12,0.022192082999026752,212.82487800645083,15.865042900628456,41.39847222222222,1.31423721340388,31,0.02371626350073065,16.923258414440898,2.09803758490082
13,0.023553297998660128,212.84903820386003,17.36602605734358,41.39847222222222,1.31423721340388,18,0.023597086297209385,16.922339164397982,2.133504430316367
14,0.025054612999156234,212.87473238205712,17.348572764823636,41.39847222222222,1.31423721340388,7,0.02340163568343452,16.92417766448382,2.1689712757319137
15,0.02654998799880559,212.8950576274966,13.997540600994522,41.39847222222222,1.31423721340388,8,0.023220486334082205,16.92877391469842,2.207984804336393
16,0.02804824099985126,212.9096304449815,10.419615634406147,41.41611111111111,1.3147971781305112,16,0.023072706601715846,16.93428941495594,2.24611166214364
17,0.02941692999957013,212.9180673393149,6.771877497737998,41.41611111111111,1.3147971781305112,3,0.02277714713698312,16.932450914870103,2.2806918367619535
18,0.030667879000247922,212.92151879608764,3.6302848441482056,41.41611111111111,1.3147971781305112,21,0.022615066140194203,16.930612414784264,2.314385340583034
19,0.0320295419987815,212.9219022912846,0.7330382858376184,41.41611111111111,1.3147971781305112,-4,0.022309972499179785,16.93428941495594,2.3525121983902806
20,0.03345723399979761,212.9176838441179,-2.356194490192345,41.41611111111111,1.3147971781305112,-6,0.02196674215303856,16.93428941495594,2.383545689819661
21,0.034820089998902404,212.9096304449815,-5.096361415823442,41.41611111111111,1.3147971781305112,-4,0.02170455230529179,16.943481915385146,2.417239193640742
22,0.03633496899965394,212.8965916082845,-8.168140899333462,41.41611111111111,1.3147971781305112,-5,0.02141852701684076,16.968301666543987,2.4491593558673563
23,0.03780761699999857,212.87933432442077,-11.117747335203878,41.41611111111111,1.3147971781305112,-5,0.021142035904671442,16.997717667917428,2.4828528596884367
24,0.03935019399978046,212.8574750981934,-14.172073526193955,41.41611111111111,1.3147971781305112,1,0.02089414732134722,17.035406919677154,2.5112263387261184
25,0.04093365100015944,212.83254791039028,-15.446163880149816,41.41611111111111,1.3147971781305112,-7,0.020693929619431502,17.094238922424044,2.5413731593582662
26,0.042570720999719924,212.80953819857197,-14.276793281313616,41.41611111111111,1.3147971781305112,-2,0.020398370154698777,17.162263425600134,2.5679732968014815
27,0.0440424289990915,212.78882945793552,-13.648474750595657,41.39847222222222,1.31423721340388,-23,0.020012236015289897,17.233045678904986,2.5910267510557645
28,0.045530641998993815,212.76390227013238,-16.022122533307947,41.39847222222222,1.31423721340388,-15,0.019659471492866974,17.31485893272487,2.6185135592962125
29,0.046901177998734056,212.73360614957164,-20.909044438892067,41.39847222222222,1.31423721340388,-13,0.01936391202813425,17.410460937188564,2.6451136967394286
30,0.04832327799886116,212.69832459145027,-24.958208303518912,41.38083333333333,1.3136772486772486,2,0.01909695509224663,17.504224441566414,2.669053821790943
31,0.04978701199979696,212.65959157655615,-25.970499269675624,41.38083333333333,1.3136772486772486,-9,0.018806162715654755,17.594310945772587,2.6965406300313917
32,0.05114616500031843,212.62469351363177,-25.42944720155738,41.363194444444446,1.3131172839506173,12,0.018582109573034786,17.677962699678318,2.72402743827184
33,0.05252211500010162,212.5905624411013,-24.923301718479024,41.345555555555556,1.3125573192239859,-13,0.01824364631503441,17.755179703283613,2.7506275757150553
34,0.05390394499954709,212.55259641660112,-26.616271092913525,41.345555555555556,1.3125573192239859,10,0.018048195701259543,17.8094154558159,2.77722771315827
35,0.05532118999872182,212.5073439833585,-32.13151152921561,41.32791666666667,1.3119973544973544,0,0.017805074206076174,17.849862457704386,2.8047145213987186
36,0.05665416899864795,212.46554300688862,-31.57300616857742,41.31027777777778,1.311437389770723,15,0.017623924856723858,17.868247458562788,2.8313146588419342
37,0.05801642299957166,212.4306449439642,-25.883232807075906,41.29263888888889,1.3108774250440918,-8,0.017366502097117938,17.87284370877739,2.859688137879616
38,0.05939305299943953,212.38999445308525,-27.872908154349442,41.29263888888889,1.3108774250440918,-5,0.017085243896807767,17.874682208863227,2.889834958511764
39,0.060780350999266375,212.34205755346383,-34.6273323595675,41.275,1.3103174603174603,13,0.016927929988159705,17.87743995899199,2.91377508356328
40,0.062184833999708644,212.29833910100908,-33.021629447732714,41.25736111111111,1.3097574955908289,8,0.016732479374384837,17.879278459077828,2.9394885502092616
41,0.06383054399884713,212.25270317256948,-27.506389011430635,41.23972222222222,1.3091975308641974,-7,0.016436919909652115,17.878359209034908,2.9696353708414103
42,0.0654476869985956,212.1936449122359,-35.51745027808461,41.20444444444444,1.3080776014109345,7,0.016146127533060245,17.882955459249512,2.998895520676324
43,0.06694165699991572,212.13842160387202,-37.57693879543792,41.18680555555555,1.3075176366843033,19,0.01596497818370793,17.897663459936233,3.0308156829029387
44,0.06842697199863323,212.09086819944756,-32.34095103945493,41.16916666666666,1.3069576719576719,7,0.015702788335961157,17.91053296053711,3.0591891619406204
45,0.06982622800023819,212.0502177085686,-29.600784113823828,41.15152777777777,1.3063977072310404,-5,0.015350023813538229,17.914209960708792,3.0884493117755345
46,0.07135019300039858,211.99844585697744,-33.492868345771186,41.13388888888889,1.3058377425044092,0,0.015021094731819553,17.91788696088047,3.1177094616104495
47,0.0728089309995994,211.94360604381052,-37.280232822598876,41.09861111111111,1.3047178130511463,5,0.014792274501058736,17.941787461996395,3.1478562822425977
48,0.07419330199991236,211.90525652411338,-29.094638630745475,41.08097222222222,1.304157848324515,-7,0.01447287959562176,17.986830714099483,3.1780031028747455
49,0.07568318899939186,211.8500332157495,-34.417892849328176,41.06333333333333,1.3035978835978836,1,0.01422975810043839,18.04290496671761,3.2108099358985926
50,0.07718500999908429,211.7856060226583,-43.860124102617505,41.04569444444444,1.3030379188712522,6,0.014010472045959274,18.110929469893698,3.240070085733507
51,0.07864954700016824,211.736135142249,-33.283428835531865,41.010416666666664,1.3019179894179893,2,0.013753049286353354,18.18263097324147,3.268443564771189
52,0.08052597899950342,211.65483416049105,-43.7379510549779,40.992777777777775,1.3013580246913579,1,0.013519461967451685,18.26995972731888,3.2985903854033376
53,0.08187857799930498,211.59615939535445,-43.7379510549779,40.957499999999996,1.3002380952380952,21,0.013381216411367023,18.369238731954255,3.3287372060354845
54,0.08331785699920147,211.5428535629754,-39.322268047432246,40.93986111111111,1.2996781305114637,1,0.013200067062014709,18.47495248689007,3.3588840266676327
55,0.08464814699982526,211.48302831224788,-41.713369122664474,40.92222222222222,1.2991181657848323,-4,0.012918808861704538,18.57974699178296,3.3899175180970134
56,0.08602855999924941,211.4182176239597,-47.68239516448509,40.90458333333333,1.2985582010582009,30,0.01281870001074668,18.682702996590017,3.4253843635125607
57,0.08739371299998311,211.3672127627625,-39.07792195215304,40.886944444444445,1.2979982363315696,11,0.012604181044408412,18.77922425109663,3.451984500955776
58,0.0886327859989251,211.31390693038347,-39.392081217512015,40.869305555555556,1.2974382716049382,-13,0.012275251962689733,18.87114925538864,3.479471309196224
59,0.08986930799983384,211.25906711721657,-45.11676116405342,40.83402777777778,1.2963183421516755,9,0.012065500084492314,18.939173758564728,3.509618129828372
60,0.0911196260003635,211.21419817917092,-37.59439208795786,40.81638888888889,1.295758377425044,-6,0.011803310236745544,18.991571011011175,3.538878279663287
61,0.09242344700032845,211.1635768131707,-37.96091123087667,40.79875,1.2951984126984126,-13,0.011450545714322614,19.02742176268506,3.5716851126871343
62,0.0938010129993927,211.1029845720492,-44.64552226601495,40.78111111111111,1.2946384479717812,1,0.011197890042857546,19.04488751350054,3.6036052749137486
63,0.09530751199963561,211.04085835013984,-41.67846253762459,40.74583333333333,1.2935185185185185,-12,0.010964302723955878,19.071545764745228,3.633752095545897
64,0.09679791599955934,210.9756641666547,-41.870448755343965,40.72819444444444,1.292958553791887,-13,0.010797454639026116,19.09452701581823,3.6630122453808114
65,0.09813527499863994,210.9016495936392,-53.12782243070739,40.71055555555555,1.2923985890652556,-9,0.01047329264544829,19.11291201667663,3.6913857244184927
66,0.09939540699997451,210.84757677086625,-46.58283773572865,40.67527777777777,1.2912786596119927,11,0.010268307855391724,19.125781517277513,3.725965899036806
67,0.1007761839991872,210.7716447218659,-50.492375260195956,40.65763888888889,1.2907186948853615,-9,0.010029953448349206,19.14416651813592,3.754339378074488
68,0.10216380800011393,210.69686315845647,-57.735491655972424,40.62236111111111,1.2895987654320988,37,0.009910776244827942,19.15427826860804,3.7835995279094026
69,0.10354054500021448,210.6278340230016,-46.96681017116741,40.60472222222222,1.2890388007054674,-3,0.009577080074968415,19.166228519165998,3.8101996653526182
70,0.10502295199876244,210.54423207006187,-57.9274778736918,40.56944444444444,1.2879188712522045,30,0.009462669959588006,19.191048270324842,3.8394598151875323
71,0.10645183899941912,210.48402332413735,-45.50073359949217,40.55180555555555,1.287358906525573,4,0.009200480111841236,19.213110271354925,3.870493306616914
72,0.10777636300008453,210.4188291406522,-45.01204140893376,40.516527777777775,1.2862389770723104,-11,0.00886678394198171,19.236091522427927,3.8988667856545947
73,0.10964043700005277,210.32985825495484,-48.13618077000361,40.481249999999996,1.2851190476190475,-2,0.008628429534939192,19.27194227410181,3.93078694788121
74,0.11102066499915964,210.2608291195,-46.14650542273007,40.44597222222222,1.2839991181657846,-11,0.008294733365079666,19.309631525861533,3.9582737561216574
75,0.11240889599866932,210.18873202246937,-55.29203070318036,40.428333333333335,1.2834391534391534,12,0.008070680222459697,19.372140528780104,3.987533905956573
76,0.11377320499923371,210.12008638221147,-47.73475504204491,40.393055555555556,1.2823192239858907,3,0.008032543517332895,19.431891781569913,4.015907384994254
77,0.11513408199971309,210.03993588604445,-58.25909043157072,40.375416666666666,1.2817592592592593,4,0.007970571371501839,19.491643034359722,4.043394193234703
78,0.1163648279998597,209.97282422657446,-54.94296485278149,40.34013888888889,1.2806393298059964,31,0.007798956198431225,19.56426378775041,4.070881001475151
79,0.11777115400036564,209.8968921775741,-53.145275723227336,40.30486111111111,1.2795194003527337,-1,0.007603505584656358,19.64883479169906,4.099254480512832
80,0.11912503399980778,209.80868828227068,-65.13568768442838,40.28722222222222,1.2789594356261023,61,0.00786569543240313,19.730648045518947,4.125854617956048
81,0.1212551219996385,209.70361059830051,-49.51499087907913,40.23430555555555,1.277279541446208,-16,0.00748909546927595,19.817057549553443,4.156001438588195
82,0.1226357019986608,209.6353484532396,-53.45943498858632,40.19902777777778,1.2761596119929455,19,0.00724597397409258,19.886001302772453,4.186148259220343
83,0.12399418399945716,209.56746980337567,-46.44321139556911,40.18138888888889,1.275599647266314,-10,0.0069694828619232575,19.9338023050043,4.218955092244191
84,0.1253678969987959,209.49307173516323,-55.0651379004211,40.14611111111111,1.2744797178130511,8,0.0068550727465428495,19.958622056163144,4.249988583673573
85,0.12673430900031235,209.4248095901023,-49.82915014443811,40.11083333333333,1.2733597883597882,-3,0.0065356778411058735,19.959541306206066,4.273928708725089
86,0.12797746099931828,209.35002802669288,-56.548667764616276,40.09319444444444,1.2727998236331568,6,0.006430801902007165,19.948510305691023,4.301415516965537
87,0.12927635899905,209.28598432879866,-55.50147021341968,40.057916666666664,1.2716798941798941,20,0.006292556345922503,19.9108210539313,4.332449008394918
88,0.13060165099886945,209.2023823758589,-56.46140130201656,40.022638888888885,1.2705599647266312,7,0.00601129814561233,19.854746801313173,4.359935816635366
89,0.131885221999255,209.13373673560102,-59.95205980600522,40.004999999999995,1.2699999999999998,31,0.006035133586316584,19.778449047750804,4.390969308064747
90,0.13324678499884612,209.05281924904003,-54.611352294902574,39.969722222222224,1.2688800705467373,11,0.006063736115161685,19.69387804380215,4.417569445507962
91,0.13476538800023263,208.96614933452452,-60.07423285364482,39.934444444444445,1.2677601410934745,51,0.006197214583105497,19.616661040196856,4.4468295953428765
92,0.13612345299952722,208.90095515103937,-49.09611185860049,39.916805555555555,1.267200176366843,-3,0.005806313355555763,19.556909787407047,4.473429732786092
93,0.13754369500020402,208.8292415492057,-49.968776484597655,39.88152777777778,1.2660802469135801,-9,0.005691903240175354,19.485208284059283,4.506236565809939
94,0.1391223379996518,208.75522697619022,-47.40314248416599,39.84625,1.2649603174603175,2,0.005658533623189402,19.40891053049691,4.536383386442087
95,0.14066685099896858,208.6735424992353,-50.89380098815465,39.81097222222222,1.2638403880070546,-9,0.0054630830094145365,19.332612776934543,4.5674168778714686
96,0.14214385299965215,208.5956929742501,-54.29719302954359,39.77569444444444,1.2627204585537917,4,0.005129386839555009,19.274700024230572,4.601110381692549
97,0.1435245569991821,208.5182269444619,-52.621676947629034,39.75805555555555,1.2621604938271604,-9,0.004948237490202695,19.211271771269086,4.633030543919164
98,0.14524816300036036,208.4242706212039,-58.88740896228868,39.72277777777778,1.2610405643738978,12,0.004938703313920994,19.154278268608035,4.666724047740243
99,0.14697822400012228,208.31382400447615,-58.0496509213314,39.6875,1.2599206349206349,9,0.004790923581554633,19.093607765775303,4.697757539169625
100,0.14827165299902845,208.23865894586973,-64.48991586119048,39.65222222222222,1.258800705467372,21,0.00463360967290657,19.028341012727978,4.694210855980692
101,0.1496061309990182,208.16195990647546,-52.30751768227006,39.61694444444444,1.2576807760141093,8,0.005014976724174601,18.96583200980941,4.6906641727917595
102,0.15087287399910565,208.09062979983878,-60.754911261922615,39.59930555555555,1.2571208112874779,16,0.004695581818737625,18.902403756847924,4.6871174896028265
103,0.1527394919994549,207.9909210486262,-52.8485697503883,39.564027777777774,1.256000881834215,3,0.004562103350793815,18.840814003972277,4.675590755712575
104,0.1541107049997663,207.91537249482283,-56.164695329177526,39.528749999999995,1.2548809523809523,30,0.004438159059131704,18.779224251096625,4.670270730929176
105,0.15548943399880955,207.84672685456496,-50.54473513775579,39.511111111111106,1.2543209876543209,10,0.004223640092793438,18.71671524817806,4.664950706145778
106,0.15684816999964823,207.76542587280701,-56.77556056737554,39.475833333333334,1.2532010582010582,34,0.004061559096004525,18.651448495130733,4.659630681362378
107,0.15813733299910382,207.70329965089766,-54.48917924726297,39.458194444444445,1.2526410934744268,39,0.0039042451873564626,18.58434324199756,4.654310656578979
108,0.15949047199865163,207.6369549818216,-45.29129408925285,39.422916666666666,1.251521164021164,11,0.0035943844582011874,18.517237988864395,4.649877302592814
109,0.160854757999914,207.56063943762427,-57.29915934297384,39.38763888888889,1.2504012345679012,79,0.0035705490174969354,18.456567486031666,4.642783936214949
110,0.16248869099945296,207.49774622532098,-37.01843343479973,39.37,1.2498412698412698,-2,0.0032034832306514567,18.39313923307018,4.637463911431549
111,0.1638643329988554,207.42948408026007,-49.84660343695805,39.33472222222222,1.2487213403880069,55,0.0031415110848204007,18.34166123066665,4.627710532661984
112,0.1652311189991451,207.37579475268407,-41.434116442345385,39.31708333333333,1.2481613756613756,28,0.00312720982039785,18.293860228434806,4.622390507878585
113,0.16660431399941444,207.32939183385054,-34.26081321664869,39.29944444444444,1.2476014109347442,5,0.003065237674566795,18.25065547641756,4.6152971415007205
114,0.16784333400028117,207.28490639100184,-34.19100004656892,39.26416666666667,1.2464814814814815,16,0.0031081414678344483,18.208369974443237,4.613523799906254
115,0.16910239499884483,207.23620250098648,-38.885935734433666,39.24652777777778,1.24592151675485,22,0.003174880701806354,18.16792297255475,4.6055437627311555
116,0.17039522899904114,207.1940180293196,-36.12831551628262,39.22888888888889,1.2453615520282186,33,0.0032559212002008105,18.137587721138384,4.600223737947756
117,0.17172660500000347,207.1541345288346,-28.34414705238791,39.21125,1.2448015873015872,8,0.0032797566409050617,18.113687220022463,4.5984503963532894
118,0.1731028799986234,207.1046636484253,-34.95894491744642,39.19361111111111,1.244241622574956,9,0.0032225515832148576,18.0971407192499,4.593130371569891
119,0.17436924199864734,207.0628626719554,-35.34291735288517,39.17597222222222,1.2436816578483245,41,0.0034370705495531243,18.086109718734857,4.583376992800326
120,0.1757795499997883,207.02604713304615,-27.838001569309558,39.15833333333333,1.243121693121693,6,0.00349427560724333,18.075078718219817,4.578056968016927
121,0.17727244699926814,206.98578013736415,-26.040312439755397,39.14069444444444,1.2425617283950616,14,0.0035800831937786363,18.066805467833536,4.574510284827995
122,0.17873203399904014,206.9420616849094,-29.23426497090502,39.12305555555555,1.2420017636684302,35,0.003770766719412652,18.062209217618932,4.572736943233528
123,0.18073805899985018,206.8872218717425,-27.331856086231202,39.10541666666666,1.2414417989417987,46,0.004013888214596021,18.065886217790613,4.56209689366673
124,0.18211057599910419,206.8550082751969,-24.03318379996192,39.087777777777774,1.2408818342151675,14,0.004075860360427076,18.070482468005213,4.563870235261197
