,Time [sec],Motor angle [rad],Motor speed [rad/sec],Linear encoder [mm],Joint angle [rad],Motor current [units],Motor torque [Nm],Force sensor TSA [N],Force sensor handle [N]
0,0.0011459780002951447,188.3452290981748,0.0,41.75125,1.3254365079365078,8,0.022886790164222678,12.820645472888398,1.370967355328762
1,0.0036414760002116964,188.34177764140205,-1.7453292519943295,41.75125,1.3254365079365078,-48,0.022429149702701042,12.888669976064486,1.3949074668540573
2,0.006078163999973185,188.32988929029594,-5.759586531581287,41.75125,1.3254365079365078,-70,0.021866633302080697,12.949340478897213,1.4179609075821196
3,0.008685952000178077,188.2980591889473,-13.386675362796508,41.75125,1.3254365079365078,-60,0.0212993498133195,12.999899231257823,1.435694323526783
4,0.011120977000246057,188.2363164622349,-28.221974004748308,41.73361111111111,1.3248765432098766,-51,0.020813106822952766,13.037588483017549,1.4552010810659126
5,0.013888575000237324,188.14696208134058,-31.485739705977704,41.71597222222222,1.3243165784832451,-78,0.02015524865951541,13.066085234348073,1.4755945094022755
6,0.016526211999916995,188.02462711350668,-50.282935749956636,41.69833333333333,1.3237566137566137,-26,0.01979294996081078,13.088147235378155,1.490667912955239
7,0.019142978000218136,187.88196690023332,-54.68116546498234,41.66305555555555,1.3226366843033508,-71,0.01924950191275384,13.108370736322398,1.5039679749137362
8,0.02165702499996769,187.7051756144295,-62.43042734383717,41.62777777777777,1.3215167548500881,-18,0.018949175359880263,13.11572473666576,1.5163813660750005
9,0.02394749499990212,187.5617484107622,-59.69026041820607,41.57486111111111,1.319836860670194,-22,0.018605945013739036,13.12951348730956,1.5323414404251974
10,0.026179038000009314,187.41525324551912,-63.44271830999388,41.52194444444444,1.3181569664903,-9,0.01834375516599227,13.132271237438323,1.539434806803063
11,0.028531057000236615,187.2572532243669,-64.55972903127025,41.451388888888886,1.3159171075837741,29,0.018281783020161216,13.1405444878246,1.5474148439781612
12,0.03082288099994912,187.10577262156318,-66.09561877302527,41.39847222222222,1.31423721340388,57,0.018267481755738665,13.14330223795336,1.556281551950493
13,0.03302445400004217,186.95774347553223,-66.30505828326459,41.32791666666667,1.3119973544973544,80,0.018377124782978222,13.14330223795336,1.5695816139089902
14,0.0352685709999605,186.84461239242566,-48.64232625308196,41.275,1.3103174603174603,1,0.018124469111513154,13.146979238125038,1.5828816758674877
15,0.03749188600022535,186.7395347084555,-44.575709095935174,41.22208333333333,1.308637566137566,4,0.017919484321456583,13.158010238640081,1.5997284210149179
16,0.0396086609998747,186.62640362534893,-55.955255818938205,41.15152777777777,1.3063977072310404,1,0.017628691944864713,13.189264740099366,1.6183485077568143
17,0.041345161000208464,186.54510264359098,-44.9073216538141,41.09861111111111,1.3047178130511463,-11,0.017309297039427737,13.238904242417052,1.638741936093177
18,0.043201533000228665,186.44194243560568,-55.484016920899734,41.06333333333333,1.3035978835978836,9,0.01717581857148392,13.314282745936502,1.6582486936323066
19,0.04480827399993359,186.36294242502956,-48.188540647563435,41.010416666666664,1.3019179894179893,-7,0.016913628723737154,13.412642500528957,1.679528792765903
20,0.046447625999917364,186.26936959696855,-57.80530482605219,40.975138888888885,1.3007980599647264,22,0.01679921860835674,13.535822006280252,1.6990355503050325
21,0.048056800000267685,186.19305405277123,-46.774823953448035,40.93986111111111,1.2996781305114637,7,0.016613302170863577,13.667274762417831,1.7212023202358615
22,0.049540958000307,186.11060258542238,-55.361843873260135,40.90458333333333,1.2985582010582009,14,0.01641308446894786,13.787696518040367,1.7407090777749912
23,0.050907595999888144,186.05077733469483,-45.0294947014537,40.886944444444445,1.2979982363315696,-6,0.016131826268637687,13.906279773577062,1.7602158353141206
24,0.05228176299988263,185.98098120884603,-48.83431247080134,40.85166666666667,1.296878306878307,-7,0.015841033892045817,14.011074278469955,1.7841559468394157
25,0.053658811999866884,185.9131025589821,-50.125856117277145,40.83402777777778,1.2963183421516755,-5,0.015574076956158195,14.10024153263321,1.8045493751757786
26,0.05503038100005142,185.84944235628484,-46.565384443208714,40.79875,1.2951984126984126,-16,0.015187942816749313,14.162750535551774,1.8231694619176753
27,0.05644631899986052,185.76890836492086,-55.60618996853934,40.78111111111111,1.2946384479717812,3,0.0149877251148336,14.208713037697782,1.847109573442971
28,0.05792699099993115,185.69259282072355,-52.8485697503883,40.76347222222222,1.2940784832451497,-14,0.014677864385678323,14.25191778971503,1.8692763433738
29,0.059268090999921696,185.60668989660195,-57.94493116621174,40.72819444444444,1.292958553791887,-10,0.01438707200908645,14.275818290830953,1.8905564425073955
30,0.06054559699987294,185.53535978996527,-61.732295643039436,40.71055555555555,1.2923985890652556,-7,0.01411534798505798,14.275818290830953,1.9100632000465247
31,0.061915205999866885,185.44523841867698,-61.453042962720346,40.67527777777777,1.2912786596119927,-6,0.013824555608466104,14.269383540530512,1.9295699575856546
32,0.06313474199987468,185.36815588408572,-65.76400621514634,40.65763888888889,1.2907186948853615,10,0.013638639170972942,14.269383540530512,1.9490767151247843
33,0.06518462900021404,185.28493742634294,-54.22737985946382,40.62236111111111,1.2895987654320988,-28,0.013228669590859807,14.253756289800867,1.9659234602722142
34,0.06654066000010062,185.1725733336303,-61.27851003752091,40.58708333333333,1.288478835978836,-12,0.012861603804014328,14.239048289114145,1.980110193027945
35,0.06790875100023186,185.0801509911602,-62.23844112611779,40.56944444444444,1.2879188712522045,-28,0.012461168400182899,14.239048289114146,1.9942969257836756
36,0.06927543300025718,184.99731602861436,-62.67477343911637,40.534166666666664,1.2867989417989416,-11,0.012151307671027622,14.249160039586268,2.0093703293366394
37,0.07063781400029256,184.89760727740182,-70.19714251521194,40.498888888888885,1.285679012345679,-10,0.011827145677449797,14.260191040101306,2.020010378903437
38,0.07203130900006727,184.80441794453776,-69.13249167149539,40.463611111111106,1.284559082892416,2,0.011588791270407277,14.281333791088468,2.035083782456401
39,0.07345230200007791,184.69857327017365,-72.72786993060372,40.428333333333335,1.2834391534391534,14,0.011417176097336666,14.314426792633597,2.0492705152121315
40,0.07475715600003241,184.6053839373096,-72.32644420264502,40.393055555555556,1.2823192239858907,37,0.01132660142266051,14.349358294264562,2.061683906373396
41,0.07614305200013405,184.50797615727885,-70.84291433844983,40.35777777777778,1.2811992945326278,8,0.011135917897026493,14.391643796238888,2.0732106267374273
42,0.07740813300006266,184.43549556505127,-59.04448859496817,40.3225,1.280079365079365,-10,0.010816522991589519,14.431171548084453,2.086510688695925
43,0.07875756500015996,184.3434567177781,-66.7588438887831,40.28722222222222,1.2789594356261023,7,0.010578168584546997,14.472537800015857,2.097150738262722
44,0.08013804800020807,184.25947126964138,-61.191243574921195,40.25194444444444,1.2778395061728394,-2,0.010320745824941075,14.5019538013893,2.1086774586267536
45,0.08152938700004597,184.16244698480762,-70.84291433844983,40.19902777777778,1.2761596119929455,19,0.010182500268856415,14.503792301475139,2.118430837396318
46,0.08289366999997583,184.0727091087163,-62.04645490839842,40.16375,1.2750396825396826,5,0.01000611800764495,14.486326550659658,2.129070886963116
47,0.08414752299995598,183.9856556990038,-73.91469382195986,40.12847222222222,1.2739197530864197,52,0.010025186360208351,14.446798798814095,2.1405976073271473
48,0.08540490199993656,183.89630131810947,-65.58947328994691,40.09319444444444,1.2727998236331568,12,0.009824968658292637,14.407271046968527,2.1538976692856444
49,0.08662627900002917,183.81039839398787,-73.4085483388815,40.057916666666664,1.2716798941798941,46,0.00974392815989818,14.355793044565,2.166311060446909
50,0.08789666300026511,183.7386847921542,-59.93460651348528,40.022638888888885,1.2705599647266312,-3,0.00950080666471481,14.312588292547755,2.18049779320264
51,0.08913501400002133,183.65815080079022,-61.59266930287989,39.987361111111106,1.2694400352733684,-1,0.009219548464404639,14.255594789886707,2.1911378427694377
52,0.09044786399999794,183.5925731221081,-57.4038790980935,39.952083333333334,1.268320105820106,13,0.008957358616657867,14.1866510366677,2.200004550741769
53,0.09194210900022881,183.49784980845615,-60.84217772452233,39.916805555555555,1.267200176366843,0,0.008676100416347695,14.11127253314825,2.2106446003085676
54,0.09343544600005771,183.41463135071336,-56.46140130201656,39.88152777777778,1.2660802469135801,-1,0.00836623968719242,14.0358940296288,2.225718003861531
55,0.09487551900019753,183.31837405627354,-63.844144037952574,39.84625,1.2649603174603175,13,0.008199391602262657,13.963273276238112,2.2443380906034274
56,0.09627013899989834,183.23860705530348,-59.16666164260777,39.81097222222222,1.2638403880070546,13,0.00798487263592439,13.901683523362465,2.258524823359158
57,0.09764743499999895,183.14810218881823,-62.76203990171609,39.77569444444444,1.2627204585537917,17,0.007794189110290375,13.863075021559819,2.274484897709355
58,0.09913414900029238,183.06258275989362,-60.5105651666434,39.74041666666666,1.261600529100529,15,0.007603505584656359,13.844690020701416,2.290444972059552
59,0.10051181800008635,182.9739953693932,-61.208696867441134,39.70513888888889,1.2604805996472663,-8,0.007284110679219383,13.830901270057614,2.302858363220816
60,0.1018781040002068,182.90266526275653,-54.611352294902574,39.66986111111111,1.2593606701940034,-4,0.007007619567050061,13.820789519585492,2.314385083584847
61,0.10325563100013824,182.82059729060464,-57.56095873077299,39.65222222222222,1.258800705467372,-8,0.006745429719303289,13.82262801967133,2.328571816340578
62,0.10463729399998556,182.74428174640735,-56.985000077614856,39.61694444444444,1.2576807760141093,7,0.00649754113597907,13.82446651975717,2.3427585490963083
63,0.10589125100023011,182.6752526109525,-53.686327791345576,39.59930555555555,1.2571208112874779,-16,0.006178146230542096,13.843770770658491,2.357831952649272
64,0.10712609300026088,182.59241764840667,-64.87388829662923,39.564027777777774,1.256000881834215,6,0.005920723470936175,13.851124771001851,2.3711320146077695
65,0.10841314400022384,182.52607297933062,-55.99016240397809,39.528749999999995,1.2548809523809523,-13,0.005553657684090695,13.843770770658491,2.3862054181607335
66,0.1096284690001994,182.43863607442114,-65.3451271946677,39.511111111111106,1.2543209876543209,-2,0.005258098219357972,13.82998202001469,2.399505480119231
67,0.11088600699986273,182.3665389773905,-61.22615015996108,39.475833333333334,1.2532010582010582,13,0.005034045076738002,13.806081518898766,2.411918871280495
68,0.11211955099997795,182.2806360532689,-65.38003377970759,39.458194444444445,1.2526410934744268,2,0.004800457757836335,13.778504017611164,2.424332262441759
69,0.11348893400008819,182.20815546104131,-62.23844112611779,39.422916666666666,1.251521164021164,9,0.004633609672906571,13.73805701572268,2.433198970414091
70,0.11475569699996413,182.1329904024349,-53.12782243070739,39.38763888888889,1.2504012345679012,-26,0.004180736299525785,13.693933013662512,2.442952349183656
71,0.1160746730001847,182.0566748582376,-61.64502918043972,39.37,1.2498412698412698,12,0.003966217333187518,13.652566761731109,2.4518190571559875
72,0.117555621000065,181.97422339088874,-52.290064389750114,39.33472222222222,1.2487213403880069,-30,0.003661123692173093,13.600169509284662,2.4677791315061843
73,0.11905564000016966,181.8821845436156,-63.98377037811212,39.29944444444444,1.2476014109347442,1,0.003351262963017818,13.545933756752374,2.4775325102757493
74,0.12077253400002519,181.77173792688785,-62.57005368399671,39.24652777777778,1.24592151675485,-12,0.003008032616876591,13.50089050464929,2.486399218248081
75,0.12212940000017625,181.6850680123723,-64.6993553714298,39.22888888888889,1.2453615520282186,12,0.0028125820031017247,13.454928002503284,2.4961525970176455
76,0.12351503800027785,181.59878159305373,-60.80727113948244,39.19361111111111,1.244241622574956,4,0.002593295948622608,13.4328660014732,2.502359292598278
77,0.12490245100025277,181.5029077938109,-72.27408432508518,39.15833333333333,1.243121693121693,44,0.0026314326537494105,13.452170252374522,2.5165460253540086
78,0.12625837099994897,181.4288932207954,-52.11553146455068,39.12305555555555,1.2420017636684302,-13,0.002335873189016687,13.472393753318762,2.5218660501374073
79,0.127505093000309,181.3548786477799,-62.44788063635711,39.10541666666666,1.2414417989417987,20,0.0022595997787630802,13.50824450499265,2.5289594165152725
80,0.12876131100028942,181.29198543547662,-49.4626310015193,39.070138888888884,1.240321869488536,-20,0.002173792192227774,13.564318757610774,2.5413728076765367
81,0.1300231509999321,181.2183543576581,-58.62560957448953,39.03486111111111,1.2392019400352734,-1,0.001863931463072499,13.629585510658103,2.5502395156488684
82,0.1314113680000446,181.1458737654305,-53.581608036225916,38.999583333333334,1.2380820105820105,-11,0.0017209188188469873,13.715075764649676,2.5617662360129
83,0.13276653699995222,181.06265530768772,-57.82275811857214,38.964305555555555,1.2369620811287478,-10,0.0016208099678891295,13.802404518727087,2.5741796271741633
84,0.13411553000014464,180.98979122026313,-56.19960191421741,38.946666666666665,1.2364021164021164,18,0.0013872226489874612,13.893410272976178,2.5874796891326612
85,0.1354056939999282,180.9096407240961,-58.538343111889816,38.91138888888889,1.2352821869488535,-1,0.0012823467098887528,13.979819777010668,2.5972330679022257
86,0.1366294750000634,180.83946110305035,-61.191243574921195,38.87611111111111,1.2341622574955908,26,0.001272812533607052,14.058875280701802,2.6123064714551902
87,0.13786096700005146,180.76276206365606,-56.32177496185702,38.85847222222222,1.2336022927689594,1,0.001053526479127934,14.134253784221253,2.6282665458053867
88,0.1391381849998652,180.68721350985268,-63.86159733047252,38.82319444444444,1.2324823633156965,36,0.0010582935672687848,14.18481253658186,2.641566607763884
89,0.14052837300005194,180.6185678695948,-51.78391890667176,38.78791666666667,1.2313624338624338,5,0.0008628429534939194,14.211470787826546,2.657526682114081
90,0.14205093100008526,180.53765038303385,-52.394784144869774,38.75263888888889,1.2302425044091712,-6,0.0007150632211275576,14.234452038899546,2.668166731680879
91,0.14354843099999925,180.46785425718505,-49.21828490624009,38.71736111111111,1.2291225749559083,-3,0.0007579670143952111,14.250079289629186,2.683240135233843
92,0.14526289800005543,180.36776201077552,-56.96754678509492,38.68208333333333,1.2280026455026454,-11,0.00044810628523993604,14.258352540015467,2.6992002095840393
93,0.14674801499995738,180.29182996177516,-51.73155902911193,38.64680555555555,1.2268827160493827,-10,0.00019068352563401565,14.267545040444666,2.71604695473147
94,0.1481289920002382,180.2082280088354,-58.46852994181004,38.61152777777777,1.2257627865961198,5,0.00016208099678891318,14.261110290144229,2.7337803706761337
95,0.14948399100012466,180.12961149345625,-58.78268920716902,38.593888888888884,1.2252028218694884,11,0.0001144101153804095,14.266625790401749,2.7524004574180303
96,0.15073558199992476,180.05751439642563,-55.571283383499456,38.55861111111111,1.2240828924162257,2,-8.580758653530654e-05,14.262029540187148,2.7710205441599265
97,0.15210518200001388,179.96700952994038,-66.20033852814493,38.54097222222222,1.2235229276895945,14,-8.580758653530667e-05,14.250998539672105,2.786980618510124
98,0.15349872800015874,179.90028136566735,-54.29719302954359,38.505694444444444,1.2224029982363316,-6,-0.00013347846794381043,14.253756289800865,2.8047140344547863
99,0.15486915200017393,179.80824251839422,-63.47762489503376,38.470416666666665,1.2212830687830687,6,-0.000414736668253983,14.255594789886707,2.8189007672105166
100,0.15640282499998648,179.73499493577268,-51.46975964131278,38.452777777777776,1.2207231040564372,-15,-0.0005243796954935417,14.28868779143183,2.807374046846486
101,0.15767874199991638,179.6529269636208,-60.388392119003804,38.4175,1.2196031746031746,3,-0.0002812582003101724,14.324538543105719,2.798507338874154
102,0.1590249619998758,179.57814540021138,-55.11749777798093,38.39986111111111,1.2190432098765431,-11,9.540979117872439e-20,14.356712294607917,2.7887539601045894
103,0.1603551289999814,179.4907084953019,-60.24876577884426,38.36458333333333,1.2179232804232802,-5,0.000262189847746771,14.38245129580968,2.7834339353211903
104,0.1616182210000261,179.4170774174834,-63.0063859969953,38.32930555555556,1.2168033509700176,18,0.0005911189294654475,14.408190297011448,2.778113910537791
105,0.16287299900022845,179.34344633966487,-54.85569839018178,38.31166666666667,1.2162433862433863,5,0.000986787245156029,14.428413797955688,2.774567227348858
106,0.16423864199987293,179.25639292995237,-66.20033852814493,38.27638888888889,1.2151234567901235,79,0.0014873314999453188,14.438525548427812,2.773680556551625
107,0.1654806629999257,179.19234923205815,-50.614548307835555,38.25875,1.214563492063492,-13,0.001763822612114641,14.444041048685333,2.774567227348858
108,0.16691313999990598,179.11296572628507,-60.23131248632431,38.22347222222222,1.2134435626102291,82,0.0022405314261996793,14.444960298728251,2.771907214957159
109,0.16854498000020612,179.0427861052393,-43.68559117741807,38.18819444444444,1.2123236331569665,3,0.0023597086297209393,14.44312179864241,2.769247202565459
110,0.17002405499988527,178.97644143616324,-43.09217923174,38.17055555555555,1.211763668430335,14,0.0024693516569604976,14.446798798814093,2.7754538981460914
111,0.17150334899997688,178.91201424307204,-44.69788214357478,38.13527777777777,1.2106437389770721,59,0.002612364301186009,14.446798798814093,2.7834339353211903
112,0.17299708800010194,178.858708410693,-34.88913174736665,38.117638888888884,1.2100837742504407,5,0.002364475717861789,14.432090798127371,2.7923006432935216
113,0.1743630129999474,178.79926665516246,-42.60348704118159,38.1,1.2095238095238097,28,0.002116587134537569,14.41094804714021,2.7976206680769207
114,0.17573316000016348,178.74902878435918,-38.50196329899491,38.06472222222222,1.2084038800705468,25,0.0022309972499179784,14.384289795895526,2.80028068046862
115,0.1771159909999369,178.70262586552565,-33.21361566545209,38.04708333333333,1.2078439153439153,-5,0.002188093456650325,14.355793044565,2.8047140344547863
116,0.1784881570001744,178.6497035283436,-37.7340184281174,38.011805555555554,1.2067239858906524,11,0.002235764338058829,14.32086154293404,2.804714034454786
117,0.17975671300018803,178.60176662872217,-38.86848244191372,37.994166666666665,1.2061640211640212,6,0.0023168048364532855,14.281333791088473,2.807374046846485
118,0.18111873499992726,178.5542132242977,-35.36037064540512,37.976527777777775,1.2056040564373898,1,0.0022786681313264824,14.239048289114146,2.807374046846485
119,0.18235903699996925,178.5139462286157,-32.72492347489368,37.958888888888886,1.2050440917107583,3,0.002326339012734986,14.19308578696814,2.805600705252019
120,0.18360784000014974,178.47099476655492,-33.03908274025266,37.94125,1.2044841269841269,15,0.0022929693957490335,14.136092284307091,2.8038273636575535
121,0.18498674300008133,178.41577145819105,-39.374627924992076,37.92361111111111,1.2039241622574954,44,0.0024693516569604976,14.078179531603123,2.800280680468621
122,0.1863525280000431,178.37128601534235,-35.34291735288517,37.90597222222222,1.203364197530864,38,0.002583761772340907,14.01658977872748,2.8020540220630874
123,0.1876062549999915,178.3436743611604,-23.701571242082995,37.88833333333333,1.2028042328042325,0,0.0026123643011860087,13.948565275551388,2.802054022063087
124,0.18885511799999222,178.30915979343297,-25.272367568877893,37.870694444444446,1.2022442680776015,-6,0.0026171313893268594,13.888814022761583,2.799394009671387
