,Time [sec],Motor angle [rad],Motor speed [rad/sec],Motor current [units],Linear encoder [mm],Joint angle [rad],Force sensor on motor [units],Force sensor on handle [units],Desired motor angle [rad],Desired motor speed [rad/sec],Desired motor current[units]
0,0.07841782499599503,166.2835174068035,0.0,105,20.496388888888887,0.36278645633495415,0.3948718309402466,0.13504274189472198,0,0,94.3
1,0.07960627499414841,166.2835174068035,0.0,95,20.496388888888887,0.36278645633495415,0.3948718309402466,0.13504274189472198,0,0,102.21680570855648
2,0.0807295489939861,166.2835174068035,0.0,98,20.496388888888887,0.36278645633495415,0.39511603116989136,0.13528694212436676,0,0,102.33709524535337
3,0.08189985399803845,166.2835174068035,0.0,92,20.496388888888887,0.36278645633495415,0.39511603116989136,0.13406594097614288,0,0,102.45079057245924
4,0.08315330799814546,166.2835174068035,0.0,100,20.496388888888887,0.36278645633495415,0.39511603116989136,0.13455434143543243,0,0,102.56924870863376
5,0.08438515699526761,166.2835174068035,0.0,107,20.496388888888887,0.36278645633495415,0.3948718309402466,0.13455434143543243,0,0,102.69612562680264
6,0.08568877299694577,166.2835174068035,0.0,100,20.496388888888887,0.36278645633495415,0.39511603116989136,0.1347985416650772,0,0,102.82081779929791
7,0.08760895899467869,166.2835174068035,0.0,99,20.496388888888887,0.36278645633495415,0.39511603116989136,0.13431014120578766,0,0,102.95277645436896
8,0.08910260499396827,166.2835174068035,0.0,88,20.496388888888887,0.36278645633495415,0.3946276307106018,0.1347985416650772,0,0,103.14715037209649
9,0.09098082499986049,166.2835174068035,0.0,106,20.496388888888887,0.36278645633495415,0.3946276307106018,0.13406594097614288,0,0,103.29834880250905
10,0.09252883799490519,166.2835174068035,0.0,86,20.496388888888887,0.36278645633495415,0.3948718309402466,0.13431014120578766,0,0,103.48847796780473
11,0.09443539299536496,166.2835174068035,0.0,104,20.496388888888887,0.36278645633495415,0.3948718309402466,0.1338217407464981,0,0,103.64518105162752
12,0.096371094994538,166.2835174068035,0.0,94,20.496388888888887,0.36278645633495415,0.39511603116989136,0.1338217407464981,0,0,103.83817811218653
13,0.0979538209940074,166.2835174068035,0.0,102,20.496388888888887,0.36278645633495415,0.3956044316291809,0.13431014120578766,0,0,104.03412373076074
14,0.0993574099993566,166.2835174068035,0.0,103,20.496388888888887,0.36278645633495415,0.39609283208847046,0.13431014120578766,0,0,104.19433627599119
15,0.10089418199640932,166.2835174068035,0.0,91,20.496388888888887,0.36278645633495415,0.3948718309402466,0.13431014120578766,0,0,104.33641322136555
16,0.10214171299594454,166.2835174068035,0.0,98,20.496388888888887,0.36278645633495415,0.3956044316291809,0.13406594097614288,0,0,104.4919683871319
17,0.1033660749963019,166.2835174068035,0.0,108,20.496388888888887,0.36278645633495415,0.39536023139953613,0.13455434143543243,0,0,104.61824319520612
18,0.10471723500086227,166.2835174068035,0.0,112,20.496388888888887,0.36278645633495415,0.3956044316291809,0.1338217407464981,0,0,104.7421700549459
19,0.10589810899546137,166.2835174068035,0.0,104,20.496388888888887,0.36278645633495415,0.39438343048095703,0.13406594097614288,0,0,104.87892750446994
20,0.10714570799609646,166.2835174068035,0.0,92,20.496388888888887,0.36278645633495415,0.3948718309402466,0.13357754051685333,0,0,104.99844607711503
21,0.1083865939945099,166.2835174068035,0.0,95,20.496388888888887,0.36278645633495415,0.3946276307106018,0.13431014120578766,0,0,105.12471423890968
22,0.10965042499447009,166.2835174068035,0.0,109,20.496388888888887,0.36278645633495415,0.39536023139953613,0.1338217407464981,0,0,105.25029880659
23,0.11114179199648788,166.2835174068035,0.0,109,20.496388888888887,0.36278645633495415,0.39438343048095703,0.1338217407464981,0,0,105.37820091048336
24,0.11235371999646304,166.2835174068035,0.0,107,20.496388888888887,0.36278645633495415,0.3956044316291809,0.13406594097614288,0,0,105.52912361326166
25,0.1136130909944768,166.2835174068035,0.0,112,20.496388888888887,0.36278645633495415,0.3946276307106018,0.13357754051685333,0,0,105.65176223058445
26,0.11471681900002295,166.2835174068035,0.0,102,20.496388888888887,0.36278645633495415,0.3946276307106018,0.13406594097614288,0,0,105.77919612749973
27,0.11585294499673182,166.2835174068035,0.0,91,20.496388888888887,0.36278645633495415,0.3946276307106018,0.13455434143543243,0,0,105.89087576043156
28,0.116972641000757,166.2835174068035,0.0,108,20.496388888888887,0.36278645633495415,0.3948718309402466,0.13357754051685333,0,0,106.00582843693323
29,0.11829519299499225,166.2835174068035,0.0,114,20.496388888888887,0.36278645633495415,0.3946276307106018,0.13357754051685333,0,0,106.11911341172124
30,0.1195201399968937,166.2835174068035,0.0,106,20.496388888888887,0.36278645633495415,0.39536023139953613,0.13406594097614288,0,0,106.25291515066473
31,0.12077289599983487,166.2835174068035,0.0,97,20.496388888888887,0.36278645633495415,0.3946276307106018,0.13455434143543243,0,0,106.37683502302083
32,0.12200357499386882,166.2835174068035,0.0,88,20.496388888888887,0.36278645633495415,0.3946276307106018,0.13333334028720856,0,0,106.50356061407099
33,0.12329727699398063,166.2835174068035,0.0,100,20.496388888888887,0.36278645633495415,0.39438343048095703,0.13528694212436676,0,0,106.62804520180062
34,0.12453032399935182,166.2835174068035,0.0,110,20.496388888888887,0.36278645633495415,0.39413923025131226,0.1338217407464981,0,0,106.75889599919091
35,0.12577151699952083,166.2835174068035,0.0,113,20.496388888888887,0.36278645633495415,0.39511603116989136,0.13406594097614288,0,0,106.88360329670567
36,0.1271533869949053,166.2835174068035,0.0,115,20.496388888888887,0.36278645633495415,0.3946276307106018,0.1347985416650772,0,0,107.00912566275554
37,0.12838319699949352,166.2835174068035,0.0,105,20.496388888888887,0.36278645633495415,0.3948718309402466,0.13455434143543243,0,0,107.14886396135198
38,0.129818447996513,166.2835174068035,0.0,104,20.496388888888887,0.36278645633495415,0.39413923025131226,0.1338217407464981,0,0,107.27321563436578
39,0.1313600180001231,166.2835174068035,0.0,101,20.496388888888887,0.36278645633495415,0.39438343048095703,0.13357754051685333,0,0,107.41832810988615
40,0.13307478199567413,166.2835174068035,0.0,105,20.496388888888887,0.36278645633495415,0.3948718309402466,0.13333334028720856,0,0,107.5741747904588
41,0.13491620699642226,166.28313391160654,-0.017453292519943295,115,20.496388888888887,0.36278645633495415,0.39438343048095703,0.13431014120578766,0,0,107.74751134092405
42,0.13667246899422025,166.28313391160654,-0.017453292519943295,98,20.496388888888887,0.36278645633495415,0.3956044316291809,0.1338217407464981,0,0,107.93362770593397
43,0.13826415599760367,166.28313391160654,0.0,109,20.496388888888887,0.36278645633495415,0.3948718309402466,0.13431014120578766,0,0,108.11111264427086
44,0.1397586439998122,166.28313391160654,0.0,107,20.496388888888887,0.36278645633495415,0.3948718309402466,0.13455434143543243,0,0,108.27194498901774
45,0.1412894699969911,166.28313391160654,0.0,114,20.496388888888887,0.36278645633495415,0.3946276307106018,0.13455434143543243,0,0,108.42293708078442
46,0.14277984899672447,166.28313391160654,0.0,112,20.496388888888887,0.36278645633495415,0.3946276307106018,0.13406594097614288,0,0,108.57758103099084
47,0.14450259499426465,166.28313391160654,0.0,94,20.496388888888887,0.36278645633495415,0.39438343048095703,0.1347985416650772,0,0,108.72811950376037
48,0.14610842199908802,166.28313391160654,0.0,102,20.496388888888887,0.36278645633495415,0.39438343048095703,0.1338217407464981,0,0,108.90210385701712
49,0.1477330779962358,166.28313391160654,0.0,117,20.496388888888887,0.36278645633495415,0.3938950300216675,0.13357754051685333,0,0,109.06425559013704
50,0.14936662599939154,166.28313391160654,0.0,107,20.496388888888887,0.36278645633495415,0.3948718309402466,0.13431014120578766,0,0,109.22828361539868
51,0.15070081199519336,166.28313391160654,0.0,112,20.496388888888887,0.36278645633495415,0.3946276307106018,0.1338217407464981,0,0,109.39318327032949
52,0.15216865899856202,166.28313391160654,0.0,106,20.496388888888887,0.36278645633495415,0.39438343048095703,0.1347985416650772,0,0,109.52784364531489
53,0.1537264119979227,166.28313391160654,0.0,100,20.496388888888887,0.36278645633495415,0.39438343048095703,0.13333334028720856,0,0,109.67597323906152
54,0.15520868900057394,166.28313391160654,0.0,102,20.496388888888887,0.36278645633495415,0.3946276307106018,0.13357754051685333,0,0,109.83315080733664
55,0.1567485619962099,166.28313391160654,0.0,95,20.496388888888887,0.36278645633495415,0.39511603116989136,0.13357754051685333,0,0,109.98268832867339
56,0.1580570890000672,166.28313391160654,0.0,106,20.496388888888887,0.36278645633495415,0.39438343048095703,0.13431014120578766,0,0,110.1380104043016
57,0.15944073099672096,166.28313391160654,0.0,114,20.496388888888887,0.36278645633495415,0.3948718309402466,0.1347985416650772,0,0,110.26997609276572
58,0.16081950700026937,166.28313391160654,0.0,116,20.496388888888887,0.36278645633495415,0.3946276307106018,0.13455434143543243,0,0,110.40949545938383
59,0.1620454149961006,166.28313391160654,0.0,106,20.496388888888887,0.36278645633495415,0.39438343048095703,0.13357754051685333,0,0,110.54850150317856
60,0.1633445359984762,166.28313391160654,0.0,96,20.496388888888887,0.36278645633495415,0.39413923025131226,0.13357754051685333,0,0,110.67207625574241
61,0.16465437499573454,166.28313391160654,0.0,104,20.496388888888887,0.36278645633495415,0.39413923025131226,0.132844939827919,0,0,110.80301078368501
62,0.16591041599895107,166.28313391160654,0.0,118,20.496388888888887,0.36278645633495415,0.39438343048095703,0.13406594097614288,0,0,110.93500401969965
63,0.167153802998655,166.28313391160654,0.0,95,20.496388888888887,0.36278645633495415,0.3938950300216675,0.1338217407464981,0,0,111.06155532713271
64,0.16842609499872196,166.28313391160654,0.0,104,20.496388888888887,0.36278645633495415,0.39413923025131226,0.13431014120578766,0,0,111.18681140268839
65,0.1696578880000743,166.28313391160654,0.0,118,20.496388888888887,0.36278645633495415,0.39438343048095703,0.132844939827919,0,0,111.31495804807143
66,0.17090768799971556,166.28313391160654,0.0,108,20.496388888888887,0.36278645633495415,0.39413923025131226,0.13333334028720856,0,0,111.43900475911327
67,0.17213832899869885,166.28313391160654,0.0,94,20.496388888888887,0.36278645633495415,0.3936508297920227,0.13455434143543243,0,0,111.5648435562254
68,0.17337227399548283,166.28313391160654,0.0,105,20.496388888888887,0.36278645633495415,0.3938950300216675,0.1338217407464981,0,0,111.68873199084513
69,0.1746204029986984,166.28313391160654,0.0,121,20.496388888888887,0.36278645633495415,0.3948718309402466,0.13406594097614288,0,0,111.81293148168959
70,0.1759171109952149,166.28313391160654,0.0,96,20.496388888888887,0.36278645633495415,0.39413923025131226,0.13406594097614288,0,0,111.93853632213086
71,0.1772960559974308,166.28313391160654,0.0,96,20.496388888888887,0.36278645633495415,0.39413923025131226,0.13333334028720856,0,0,112.0690057526295
72,0.1785392169986153,166.28313391160654,0.0,114,20.496388888888887,0.36278645633495415,0.3936508297920227,0.1338217407464981,0,0,112.20772211535093
73,0.1797835299948929,166.28313391160654,0.0,116,20.496388888888887,0.36278645633495415,0.3948718309402466,0.13431014120578766,0,0,112.3327545425902
74,0.1812482759996783,166.28313391160654,0.0,106,20.496388888888887,0.36278645633495415,0.39413923025131226,0.1338217407464981,0,0,112.45787910788621
75,0.18254241099930368,166.28313391160654,0.0,98,20.496388888888887,0.36278645633495415,0.3936508297920227,0.13406594097614288,0,0,112.60513889941856
76,0.18378326799575007,166.28313391160654,0.0,107,20.496388888888887,0.36278645633495415,0.3936508297920227,0.13406594097614288,0,0,112.73521790976997
77,0.1851691359988763,166.28313391160654,0.0,108,20.496388888888887,0.36278645633495415,0.3938950300216675,0.13308914005756378,0,0,112.85991647714243
78,0.1866088429960655,166.28313391160654,0.0,119,20.496388888888887,0.36278645633495415,0.39413923025131226,0.13333334028720856,0,0,112.99915812163289
79,0.1879021950007882,166.28313391160654,0.0,126,20.496388888888887,0.36278645633495415,0.39438343048095703,0.1338217407464981,0,0,113.14377547720923
80,0.18926428899430903,166.28313391160654,0.0,110,20.496388888888887,0.36278645633495415,0.39413923025131226,0.1338217407464981,0,0,113.27366193663408
81,0.19054261299606878,166.28313391160654,0.0,96,20.496388888888887,0.36278645633495415,0.3938950300216675,0.1338217407464981,0,0,113.41042109680096
82,0.191746542994224,166.28313391160654,0.0,115,20.496388888888887,0.36278645633495415,0.39413923025131226,0.13406594097614288,0,0,113.53874030519418
83,0.19298545299534453,166.28313391160654,0.0,121,20.496388888888887,0.36278645633495415,0.3936508297920227,0.13333334028720856,0,0,113.65956563297075
84,0.19427823699516011,166.28313391160654,0.0,104,20.496388888888887,0.36278645633495415,0.3938950300216675,0.13357754051685333,0,0,113.78387469880745
85,0.19569190299807815,166.28313391160654,0.0,99,20.496388888888887,0.36278645633495415,0.3938950300216675,0.13406594097614288,0,0,113.91355996542661
86,0.1971391689949087,166.28313391160654,0.0,99,20.496388888888887,0.36278645633495415,0.3936508297920227,0.13333334028720856,0,0,114.05533667521377
87,0.19859704699774738,166.28313391160654,0.0,98,20.496388888888887,0.36278645633495415,0.39316242933273315,0.13431014120578766,0,0,114.2004449476053
88,0.19989945999986958,166.28313391160654,0.0,103,20.496388888888887,0.36278645633495415,0.3938950300216675,0.13357754051685333,0,0,114.3465776047599
89,0.20126514499861514,166.28313391160654,0.0,109,20.496388888888887,0.36278645633495415,0.3938950300216675,0.13357754051685333,0,0,114.47709290165835
90,0.20250230099918554,166.28313391160654,0.0,119,20.496388888888887,0.36278645633495415,0.39438343048095703,0.1338217407464981,0,0,114.61391370417182
91,0.20397910999599844,166.28313391160654,0.0,112,20.496388888888887,0.36278645633495415,0.3938950300216675,0.13431014120578766,0,0,114.7378265440095
92,0.2052453109936323,166.28313391160654,0.0,108,20.496388888888887,0.36278645633495415,0.3938950300216675,0.13357754051685333,0,0,114.88570341256599
93,0.20656698599486845,166.28313391160654,0.0,98,20.496388888888887,0.36278645633495415,0.39413923025131226,0.13211233913898468,0,0,115.01245690161758
94,0.20799100899603218,166.28313391160654,0.0,101,20.478749999999998,0.36278645633495415,0.39340662956237793,0.13308914005756378,0,0,115.14472910561031
95,0.20934640799532644,166.28313391160654,0.0,104,20.478749999999998,0.36278645633495415,0.39340662956237793,0.13333334028720856,0,0,115.28720426664613
96,0.2106560729953344,166.28313391160654,0.0,103,20.478749999999998,0.36278645633495415,0.3936508297920227,0.1338217407464981,0,0,115.4227745515053
97,0.21208795599523,166.28313391160654,0.0,107,20.478749999999998,0.36278645633495415,0.39413923025131226,0.13406594097614288,0,0,115.55373387392493
98,0.2132154589999118,166.28313391160654,0.0,123,20.478749999999998,0.36278645633495415,0.3938950300216675,0.13333334028720856,0,0,115.69687274119448
99,0.21455848599725869,166.28313391160654,0.0,115,20.478749999999998,0.36278645633495415,0.3936508297920227,0.13333334028720856,0,0,115.80955320562543
100,0.2158918540008017,166.28313391160654,0.0,106,20.478749999999998,0.36278645633495415,0.39340662956237793,0.1338217407464981,0,0,115.9437367816245
101,0.21726175599906128,166.28313391160654,0.0,99,20.478749999999998,0.36278645633495415,0.39340662956237793,0.13333334028720856,0,0,116.07691624582742
102,0.21849755400035065,166.28313391160654,0.0,114,20.478749999999998,0.36278645633495415,0.39413923025131226,0.1338217407464981,0,0,116.21370379630503
103,0.21997893599473173,166.28313391160654,0.0,123,20.478749999999998,0.36278645633495415,0.39438343048095703,0.13357754051685333,0,0,116.3370647424823
104,0.22125003399560228,166.28313391160654,0.0,124,20.478749999999998,0.36278645633495415,0.3936508297920227,0.13357754051685333,0,0,116.48489503746546
105,0.22269585199683206,166.28313391160654,0.0,117,20.478749999999998,0.36278645633495415,0.3936508297920227,0.13308914005756378,0,0,116.61170061230487
106,0.22407358199416194,166.28313391160654,0.0,108,20.478749999999998,0.36278645633495415,0.39316242933273315,0.13406594097614288,0,0,116.75589092053953
107,0.2253523299950757,166.28313391160654,0.0,101,20.478749999999998,0.36278645633495415,0.39413923025131226,0.13333334028720856,0,0,116.89324536642036
108,0.2266436059944681,166.28313391160654,0.0,118,20.478749999999998,0.36355344672889695,0.39438343048095703,0.1338217407464981,0,0,117.0206915234073
109,0.22804341099981684,166.28313391160654,0.0,124,20.478749999999998,0.36355344672889695,0.39511603116989136,0.13308914005756378,0,0,117.14934664364532
110,0.22934949599584797,166.28313391160654,0.0,124,20.478749999999998,0.36355344672889695,0.39340662956237793,0.132844939827919,0,0,117.28876950012437
111,0.23059570499754045,166.28313391160654,0.0,109,20.478749999999998,0.36355344672889695,0.39316242933273315,0.1338217407464981,0,0,117.41881461189367
112,0.23192502199526643,166.28313391160654,0.0,102,20.478749999999998,0.36355344672889695,0.39316242933273315,0.13333334028720856,0,0,117.54285879309768
113,0.23318448399368208,166.28313391160654,0.0,110,20.478749999999998,0.36355344672889695,0.39316242933273315,0.13235653936862946,0,0,117.6751327522876
114,0.23449696999887237,166.28313391160654,0.0,120,20.478749999999998,0.36355344672889695,0.39340662956237793,0.13308914005756378,0,0,117.80041485727803
115,0.2359787229943322,166.28313391160654,0.0,124,20.478749999999998,0.36355344672889695,0.39340662956237793,0.13357754051685333,0,0,117.93092863344552
116,0.23728576699795667,166.28313391160654,0.0,124,20.478749999999998,0.36355344672889695,0.39316242933273315,0.13308914005756378,0,0,118.07822136150942
117,0.2386410219987738,166.28313391160654,0.0,124,20.478749999999998,0.36355344672889695,0.3936508297920227,0.13357754051685333,0,0,118.20810014744075
118,0.23987846700038062,166.28313391160654,0.0,108,20.478749999999998,0.36355344672889695,0.3936508297920227,0.132844939827919,0,0,118.34272249056168
119,0.241239910996228,166.28313391160654,0.0,99,20.478749999999998,0.36355344672889695,0.3929182291030884,0.13308914005756378,0,0,118.4656000840917
120,0.24249249999411404,166.28313391160654,0.0,118,20.478749999999998,0.36355344672889695,0.39340662956237793,0.132844939827919,0,0,118.60074366917013
121,0.24397451899858424,166.28313391160654,0.0,122,20.478749999999998,0.36355344672889695,0.3938950300216675,0.13406594097614288,0,0,118.7250378538639
122,0.24528929899679497,166.28313391160654,0.0,128,20.478749999999998,0.36355344672889695,0.39340662956237793,0.13431014120578766,0,0,118.87204345925122
123,0.2466475389956031,166.28313391160654,0.0,121,20.478749999999998,0.36355344672889695,0.39316242933273315,0.1338217407464981,0,0,119.00240990525748
124,0.2480402899964247,166.28313391160654,0.0,111,20.478749999999998,0.36355344672889695,0.39340662956237793,0.13357754051685333,0,0,119.1370355216018
125,0.24918560600053752,166.28313391160654,0.0,110,20.478749999999998,0.36355344672889695,0.3926740288734436,0.13406594097614288,0,0,119.27502844641806
126,0.25047136699868133,166.28313391160654,0.0,129,20.478749999999998,0.36355344672889695,0.39316242933273315,0.13406594097614288,0,0,119.38846483893393
127,0.2519449920000625,166.28313391160654,0.0,117,20.478749999999998,0.36355344672889695,0.39413923025131226,0.1338217407464981,0,0,119.51576716151868
128,0.2531790419961908,166.28313391160654,0.0,110,20.478749999999998,0.36355344672889695,0.3929182291030884,0.1338217407464981,0,0,119.66161168804211
129,0.2544428399996832,166.28313391160654,0.0,112,20.478749999999998,0.36355344672889695,0.39316242933273315,0.13308914005756378,0,0,119.78369735439898
130,0.25571040099748643,166.28313391160654,0.0,129,20.478749999999998,0.36355344672889695,0.39316242933273315,0.132844939827919,0,0,119.90868014246038
