,Time [sec],Motor angle [rad],Motor speed [rad/sec],Motor current [units],Linear encoder [mm],Joint angle [rad],Force sensor on motor [units],Force sensor on handle [units],Desired motor angle [rad],Desired motor speed [rad/sec],Desired motor current[units]
0,0.0774779000057606,165.20666289370777,0.0,85,20.267083333333332,0.4471553996686644,0.3797314167022705,0.13015873730182648,0,0,95.82
1,0.07875057899946114,165.20666289370777,0.0,89,20.267083333333332,0.4471553996686644,0.3797314167022705,0.13064713776111603,0,0,102.66396382624127
2,0.08008005500596482,165.20666289370777,0.0,88,20.267083333333332,0.4471553996686644,0.38021981716156006,0.13113553822040558,0,0,102.77667460472543
3,0.08144019700557692,165.20666289370777,0.0,108,20.267083333333332,0.4471553996686644,0.37948721647262573,0.1308913379907608,0,0,102.89441868233047
4,0.08291836400167085,165.20666289370777,0.0,91,20.267083333333332,0.4471553996686644,0.37924301624298096,0.13015873730182648,0,0,103.01488175185312
5,0.08446976900449954,165.20666289370777,0.0,107,20.267083333333332,0.4471553996686644,0.3797314167022705,0.13064713776111603,0,0,103.14580098722075
6,0.08631301599962171,165.20666289370777,0.0,107,20.267083333333332,0.4471553996686644,0.38021981716156006,0.13040293753147125,0,0,103.28320977541026
7,0.08796858400455676,165.20666289370777,0.0,92,20.267083333333332,0.4471553996686644,0.3797314167022705,0.12967033684253693,0,0,103.44647035625545
8,0.08985291000135476,165.20666289370777,0.0,101,20.267083333333332,0.4471553996686644,0.3789988160133362,0.13064713776111603,0,0,103.59311000715572
9,0.09173505299986573,165.20666289370777,0.0,108,20.267083333333332,0.4471553996686644,0.3789988160133362,0.13064713776111603,0,0,103.76001325169015
10,0.09360024900524877,165.20666289370777,0.0,105,20.267083333333332,0.4471553996686644,0.37924301624298096,0.13040293753147125,0,0,103.92672395695135
11,0.0954736130006495,165.20666289370777,0.0,103,20.267083333333332,0.4471553996686644,0.3797314167022705,0.1308913379907608,0,0,104.0919334098272
12,0.09745899800327606,165.20666289370777,0.0,92,20.267083333333332,0.4471553996686644,0.37948721647262573,0.13040293753147125,0,0,104.25786518527059
13,0.09932250800193287,165.20666289370777,0.0,86,20.267083333333332,0.4471553996686644,0.3799756169319153,0.13040293753147125,0,0,104.43371677539392
14,0.10078461600642186,165.20666289370777,0.0,91,20.267083333333332,0.4471553996686644,0.37948721647262573,0.12967033684253693,0,0,104.59877028954267
15,0.10216156800015597,165.20666289370777,0.0,107,20.267083333333332,0.4471553996686644,0.37924301624298096,0.13040293753147125,0,0,104.72826826422606
16,0.10349173199938377,165.20666289370777,0.0,99,20.267083333333332,0.4471553996686644,0.37948721647262573,0.13040293753147125,0,0,104.85022128047775
17,0.10475472600228386,165.20666289370777,0.0,97,20.267083333333332,0.4471553996686644,0.37924301624298096,0.1299145370721817,0,0,104.96802750195161
18,0.10599625300528714,165.20666289370777,0.0,91,20.267083333333332,0.4471553996686644,0.3789988160133362,0.12967033684253693,0,0,105.07988183117237
19,0.10724178900272818,165.20666289370777,0.0,93,20.267083333333332,0.4471553996686644,0.3789988160133362,0.12967033684253693,0,0,105.18983186331987
20,0.10849921400222229,165.20704638890476,0.2792526803190927,92,20.267083333333332,0.4471553996686644,0.37948721647262573,0.1299145370721817,0,0,105.30013353393286
21,0.10972975500044413,165.20666289370777,-0.2792526803190927,90,20.267083333333332,0.4471553996686644,0.37924301624298096,0.1299145370721817,0,0,105.41148431529668
22,0.11099634200218134,165.20666289370777,0.0,92,20.267083333333332,0.4471553996686644,0.3789988160133362,0.12967033684253693,0,0,105.52045045770191
23,0.11235043000488076,165.20666289370777,0.0,110,20.267083333333332,0.4471553996686644,0.37948721647262573,0.13040293753147125,0,0,105.6326041579923
24,0.11359255600109464,165.20666289370777,0.0,110,20.267083333333332,0.4471553996686644,0.3789988160133362,0.13040293753147125,0,0,105.7525006493433
25,0.11484556600044016,165.20666289370777,0.0,110,20.267083333333332,0.4471553996686644,0.3789988160133362,0.13015873730182648,0,0,105.86247848580348
26,0.11609998800122412,165.20666289370777,0.0,111,20.267083333333332,0.4471553996686644,0.3789988160133362,0.13040293753147125,0,0,105.97341476164286
27,0.11732787300570635,165.20666289370777,0.0,105,20.267083333333332,0.4471553996686644,0.3789988160133362,0.1299145370721817,0,0,106.08447048957478
28,0.11846908699953929,165.20666289370777,0.0,103,20.267083333333332,0.4471553996686644,0.37948721647262573,0.13015873730182648,0,0,106.19317118323947
29,0.11972055500518763,165.20666289370777,0.0,106,20.267083333333332,0.4471553996686644,0.3789988160133362,0.1299145370721817,0,0,106.2941938881047
30,0.12084453900024528,165.20666289370777,0.0,86,20.267083333333332,0.4471553996686644,0.38021981716156006,0.13015873730182648,0,0,106.40497038647243
31,0.12196597200090764,165.20666289370777,0.0,106,20.267083333333332,0.4471553996686644,0.37924301624298096,0.13015873730182648,0,0,106.50445664933795
32,0.12308443700021598,165.20704638890476,0.2792526803190927,103,20.267083333333332,0.4471553996686644,0.3787546157836914,0.12918193638324738,0,0,106.60371151637764
33,0.12437326600047527,165.20704638890476,0.03490658503988659,103,20.267083333333332,0.4471553996686644,0.3787546157836914,0.12967033684253693,0,0,106.70269790635248
34,0.12561501200252678,165.20704638890476,0.0,98,20.267083333333332,0.4471553996686644,0.3789988160133362,0.13064713776111603,0,0,106.81675440480859
35,0.12686434600618668,165.20704638890476,0.0,105,20.267083333333332,0.4471553996686644,0.3789988160133362,0.13064713776111603,0,0,106.92663640174463
36,0.12812049700005446,165.20666289370777,-0.2792526803190927,106,20.267083333333332,0.4471553996686644,0.3799756169319153,0.13064713776111603,0,0,107.03718180138671
37,0.12939848800306208,165.20666289370777,-0.03490658503988659,107,20.267083333333332,0.4471553996686644,0.3797314167022705,0.13064713776111603,0,0,107.14832194116627
38,0.13062643500597915,165.20666289370777,0.0,105,20.267083333333332,0.4471553996686644,0.3789988160133362,0.12967033684253693,0,0,107.26138540461335
39,0.13187370000377996,165.20666289370777,0.0,108,20.267083333333332,0.4471553996686644,0.3789988160133362,0.13015873730182648,0,0,107.37001263515134
40,0.13312058800511295,165.20666289370777,0.0,109,20.267083333333332,0.4471553996686644,0.37924301624298096,0.1299145370721817,0,0,107.48033960190457
41,0.13437139000598108,165.20666289370777,0.0,104,20.267083333333332,0.4471553996686644,0.3789988160133362,0.1299145370721817,0,0,107.59062367609243
42,0.13556473499920685,165.20666289370777,0.0,110,20.249444444444443,0.4471553996686644,0.3789988160133362,0.12967033684253693,0,0,107.7012440449085
43,0.13688051300414372,165.20666289370777,0.0,114,20.249444444444443,0.4471553996686644,0.37948721647262573,0.13040293753147125,0,0,107.806773433392
44,0.13812023900391068,165.20666289370777,0.0,110,20.249444444444443,0.4471553996686644,0.3787546157836914,0.13040293753147125,0,0,107.92311868592401
45,0.1393587960046716,165.20666289370777,0.0,114,20.249444444444443,0.4471553996686644,0.3789988160133362,0.1299145370721817,0,0,108.03272824087009
46,0.14087706500140484,165.20666289370777,0.0,98,20.249444444444443,0.4471553996686644,0.3789988160133362,0.13040293753147125,0,0,108.14222354192255
47,0.1423695379999117,165.20666289370777,0.0,102,20.249444444444443,0.4471553996686644,0.3799756169319153,0.13064713776111603,0,0,108.27643164260381
48,0.1435725050032488,165.20666289370777,0.0,98,20.249444444444443,0.4471553996686644,0.3789988160133362,0.1299145370721817,0,0,108.4083425870425
49,0.14493803799996385,165.20666289370777,0.0,101,20.249444444444443,0.4471553996686644,0.3787546157836914,0.13015873730182648,0,0,108.51465324034658
50,0.14630355199915357,165.20666289370777,0.0,107,20.249444444444443,0.4471553996686644,0.3789988160133362,0.1299145370721817,0,0,108.63531650806792
51,0.1478305860000546,165.20666289370777,0.0,96,20.249444444444443,0.4471553996686644,0.37924301624298096,0.13015873730182648,0,0,108.75596289100224
52,0.1493274710010155,165.20666289370777,0.0,114,20.249444444444443,0.4471553996686644,0.3789988160133362,0.1299145370721817,0,0,108.89086145077758
53,0.15060550600173883,165.20666289370777,0.0,98,20.249444444444443,0.4471553996686644,0.37948721647262573,0.13015873730182648,0,0,109.0230771720331
54,0.15191914699971676,165.20666289370777,0.0,100,20.249444444444443,0.4471553996686644,0.3789988160133362,0.1299145370721817,0,0,109.13594682844428
55,0.15332227700127987,165.20666289370777,0.0,105,20.249444444444443,0.4471553996686644,0.3789988160133362,0.1299145370721817,0,0,109.25194564567153
56,0.154677956001251,165.20666289370777,0.0,107,20.249444444444443,0.4471553996686644,0.3787546157836914,0.13015873730182648,0,0,109.37582901749461
57,0.1560089609993156,165.20704638890476,0.22689280275926285,97,20.249444444444443,0.4471553996686644,0.3789988160133362,0.1299145370721817,0,0,109.49550522444258
58,0.15725978200498503,165.20704638890476,0.08726646259971647,91,20.249444444444443,0.4471553996686644,0.37851041555404663,0.13015873730182648,0,0,109.61298598209402
59,0.15860211700055515,165.20704638890476,0.0,116,20.249444444444443,0.4471553996686644,0.37826621532440186,0.1299145370721817,0,0,109.72337338303562
60,0.15995854700304335,165.20704638890476,0.0,115,20.249444444444443,0.4471553996686644,0.3787546157836914,0.12918193638324738,0,0,109.84181953538035
61,0.16127570100070443,165.20666289370777,-0.2792526803190927,97,20.249444444444443,0.4471553996686644,0.37826621532440186,0.13015873730182648,0,0,109.96149059604606
62,0.16266913100116653,165.20704638890476,0.17453292519943295,116,20.249444444444443,0.4471553996686644,0.3787546157836914,0.12967033684253693,0,0,110.07767805806303
63,0.16422592700109817,165.20704638890476,0.0,111,20.249444444444443,0.4471553996686644,0.3787546157836914,0.1299145370721817,0,0,110.20057368893353
64,0.16547108300437685,165.20704638890476,0.0,110,20.249444444444443,0.4471553996686644,0.3789988160133362,0.13040293753147125,0,0,110.33785253622652
65,0.16672707900579553,165.20704638890476,0.0,107,20.249444444444443,0.4471553996686644,0.37851041555404663,0.13015873730182648,0,0,110.44763141155495
66,0.1680852240024251,165.20704638890476,0.0,110,20.249444444444443,0.4471553996686644,0.3787546157836914,0.12942613661289215,0,0,110.55834815384247
67,0.16942855700472137,165.20704638890476,0.0,104,20.249444444444443,0.4471553996686644,0.3787546157836914,0.13064713776111603,0,0,110.6780488671532
68,0.17085962000419386,165.20704638890476,0.0,113,20.249444444444443,0.4471553996686644,0.37948721647262573,0.1299145370721817,0,0,110.79642276918229
69,0.17215064899937715,165.20704638890476,0.0,100,20.249444444444443,0.4471553996686644,0.3789988160133362,0.13015873730182648,0,0,110.92250361171226
70,0.17354256500402698,165.20704638890476,-0.13962634015954636,118,20.249444444444443,0.4471553996686644,0.3787546157836914,0.1299145370721817,0,0,111.03622561845711
71,0.17490968300262466,165.20704638890476,0.10471975511965978,101,20.249444444444443,0.4471553996686644,0.37826621532440186,0.1299145370721817,0,0,111.15881121649667
72,0.17629356100223958,165.20704638890476,0.0,107,20.249444444444443,0.4471553996686644,0.37851041555404663,0.1299145370721817,0,0,111.27918905318076
73,0.17772600500029512,165.20704638890476,0.0,109,20.249444444444443,0.4471553996686644,0.3789988160133362,0.13040293753147125,0,0,111.4010182009878
74,0.17922139300208073,165.20704638890476,0.0,118,20.249444444444443,0.4471553996686644,0.37851041555404663,0.12942613661289215,0,0,111.52709648969584
75,0.18050584600132424,165.20704638890476,0.0,99,20.249444444444443,0.4471553996686644,0.37826621532440186,0.13015873730182648,0,0,111.6586857799791
76,0.18173843800468603,165.20704638890476,0.0,94,20.249444444444443,0.4471553996686644,0.37851041555404663,0.1299145370721817,0,0,111.77168935420455
77,0.18297475200233748,165.20704638890476,0.0,99,20.249444444444443,0.4471553996686644,0.3780220150947571,0.1299145370721817,0,0,111.88010901653074
78,0.18441451000398956,165.20704638890476,0.0,115,20.249444444444443,0.4471553996686644,0.37826621532440186,0.12942613661289215,0,0,111.9888348235402
79,0.1858248190037557,165.20704638890476,0.0,99,20.249444444444443,0.4471553996686644,0.37826621532440186,0.12967033684253693,0,0,112.1154249988382
80,0.18718552100472152,165.20704638890476,0.0,117,20.249444444444443,0.4471553996686644,0.37826621532440186,0.13064713776111603,0,0,112.23939705755114
81,0.1884881950027193,165.20704638890476,0.0,98,20.249444444444443,0.4471553996686644,0.3780220150947571,0.13015873730182648,0,0,112.35898099502815
82,0.18976113400276517,165.20666289370777,-0.2792526803190927,110,20.249444444444443,0.4471553996686644,0.37851041555404663,0.1299145370721817,0,0,112.47343955904891
83,0.19097625400172547,165.20704638890476,0.2792526803190927,108,20.249444444444443,0.4471553996686644,0.37851041555404663,0.1299145370721817,0,0,112.58526090669878
84,0.19241289800265804,165.20704638890476,0.0,109,20.249444444444443,0.4471553996686644,0.37826621532440186,0.12942613661289215,0,0,112.69198018205748
85,0.19376743700559018,165.20704638890476,0.0,110,20.249444444444443,0.4471553996686644,0.37851041555404663,0.1299145370721817,0,0,112.81812572149576
86,0.19523353900149232,165.20704638890476,0.0,115,20.249444444444443,0.4471553996686644,0.37826621532440186,0.13040293753147125,0,0,112.93703246468128
87,0.19650211300177034,165.20704638890476,0.0,101,20.249444444444443,0.4471553996686644,0.37826621532440186,0.1289377361536026,0,0,113.06569990090921
88,0.19800016800581943,165.20704638890476,0.0,119,20.249444444444443,0.4471553996686644,0.37826621532440186,0.1299145370721817,0,0,113.17700412148484
89,0.19925150700146332,165.20704638890476,0.0,107,20.249444444444443,0.4471553996686644,0.3789988160133362,0.1299145370721817,0,0,113.3084091885837
90,0.20047463400260312,165.20704638890476,0.0,101,20.249444444444443,0.4471553996686644,0.3780220150947571,0.13015873730182648,0,0,113.4181446688124
91,0.20202620600321097,165.20704638890476,0.0,119,20.249444444444443,0.4471553996686644,0.37826621532440186,0.13015873730182648,0,0,113.52538083659333
92,0.2032117400012794,165.20704638890476,0.0,102,20.249444444444443,0.4471553996686644,0.3789988160133362,0.1299145370721817,0,0,113.66137660203124
93,0.20450017200346338,165.20704638890476,0.0,104,20.249444444444443,0.4471553996686644,0.37826621532440186,0.13040293753147125,0,0,113.7652612322004
94,0.20575245700456435,165.20704638890476,0.0,110,20.249444444444443,0.4471553996686644,0.37826621532440186,0.12942613661289215,0,0,113.8781348502674
95,0.20701791300234618,165.20704638890476,0.0,116,20.249444444444443,0.4471553996686644,0.37826621532440186,0.12967033684253693,0,0,113.98781388774277
96,0.20840856699942378,165.20704638890476,0.0,105,20.249444444444443,0.4471553996686644,0.37826621532440186,0.12942613661289215,0,0,114.09861821237423
97,0.20984896200388903,165.20704638890476,0.0,113,20.249444444444443,0.4471553996686644,0.37851041555404663,0.12918193638324738,0,0,114.2203518125929
98,0.21132334600406466,165.20704638890476,0.0,103,20.249444444444443,0.4471553996686644,0.3780220150947571,0.13015873730182648,0,0,114.34640253381428
99,0.21263051200367045,165.20704638890476,0.0,119,20.249444444444443,0.4471553996686644,0.3780220150947571,0.12942613661289215,0,0,114.4753881275031
100,0.21393157500278903,165.20704638890476,0.0,129,20.249444444444443,0.4471553996686644,0.3780220150947571,0.12967033684253693,0,0,114.58971088616373
101,0.2152365270012524,165.20704638890476,0.0,98,20.249444444444443,0.4471553996686644,0.37753361463546753,0.13064713776111603,0,0,114.70346790392199
102,0.21653206400515046,165.20704638890476,0.0,102,20.249444444444443,0.4471553996686644,0.3777778148651123,0.1299145370721817,0,0,114.8175325452263
103,0.21796032400015974,165.20704638890476,0.0,112,20.249444444444443,0.4471553996686644,0.3777778148651123,0.12918193638324738,0,0,114.93074177318347
104,0.2192309260062757,165.20704638890476,0.0,96,20.249444444444443,0.4471553996686644,0.3777778148651123,0.12918193638324738,0,0,115.0555109693152
105,0.2206741920017521,165.20704638890476,0.0,116,20.249444444444443,0.4471553996686644,0.37826621532440186,0.12942613661289215,0,0,115.16647378494756
106,0.22202712800208246,165.20704638890476,0.0,114,20.249444444444443,0.4471553996686644,0.3780220150947571,0.12918193638324738,0,0,115.29247648719094
107,0.22356515200226568,165.20704638890476,0.0,121,20.249444444444443,0.4471553996686644,0.3777778148651123,0.1299145370721817,0,0,115.41055493525204
108,0.2249961780034937,165.20704638890476,0.0,104,20.249444444444443,0.4471553996686644,0.37826621532440186,0.1299145370721817,0,0,115.54474177532785
109,0.2264298720037914,165.20704638890476,0.0,114,20.249444444444443,0.4471553996686644,0.3780220150947571,0.12918193638324738,0,0,115.66954966416105
110,0.22770288700121455,165.20704638890476,0.0,103,20.249444444444443,0.4471553996686644,0.37826621532440186,0.12967033684253693,0,0,115.79454744043088
111,0.22894886600261088,165.20704638890476,0.0,103,20.249444444444443,0.4471553996686644,0.37826621532440186,0.1299145370721817,0,0,115.90549999250095
112,0.23023089300113497,165.20704638890476,0.0,98,20.249444444444443,0.4471553996686644,0.3780220150947571,0.1299145370721817,0,0,116.01406276507566
113,0.23192519300209824,165.20704638890476,0.0,122,20.249444444444443,0.4471553996686644,0.3777778148651123,0.13113553822040558,0,0,116.12573160093692
114,0.2331887309992453,165.20704638890476,0.0,114,20.249444444444443,0.4471553996686644,0.37728941440582275,0.13015873730182648,0,0,116.27325604482381
115,0.23452872000052594,165.20704638890476,0.0,113,20.249444444444443,0.4471553996686644,0.37826621532440186,0.13015873730182648,0,0,116.38323259433564
116,0.23582187800639076,165.20704638890476,0.0,109,20.249444444444443,0.4471553996686644,0.3777778148651123,0.12967033684253693,0,0,116.49982464928357
117,0.23711830400134204,165.20704638890476,0.0,110,20.249444444444443,0.4471553996686644,0.37753361463546753,0.13015873730182648,0,0,116.6123038397784
118,0.2383528060017852,165.20704638890476,0.0,111,20.249444444444443,0.4471553996686644,0.3777778148651123,0.1299145370721817,0,0,116.72502934623239
119,0.23962262300483417,165.20704638890476,0.0,113,20.249444444444443,0.4471553996686644,0.37753361463546753,0.12942613661289215,0,0,116.83233487281133
120,0.24104236499988474,165.20704638890476,0.0,116,20.249444444444443,0.4471553996686644,0.3787546157836914,0.1299145370721817,0,0,116.94267346453185
121,0.2424205700008315,165.20704638890476,0.0,106,20.249444444444443,0.4471553996686644,0.37826621532440186,0.13015873730182648,0,0,117.06599519165633
122,0.2436970790004125,165.20704638890476,0.0,122,20.249444444444443,0.4471553996686644,0.3780220150947571,0.13015873730182648,0,0,117.18566372432274
123,0.24499275800189935,165.20704638890476,0.0,116,20.249444444444443,0.4471553996686644,0.37826621532440186,0.13015873730182648,0,0,117.2964619664274
124,0.24641931700170971,165.20704638890476,0.0,106,20.249444444444443,0.4471553996686644,0.3777778148651123,0.12967033684253693,0,0,117.40888432785707
125,0.24769000200467417,165.20704638890476,0.0,115,20.249444444444443,0.4471553996686644,0.37753361463546753,0.12942613661289215,0,0,117.53261597870124
126,0.24902896099956706,165.20704638890476,0.0,119,20.249444444444443,0.4471553996686644,0.3780220150947571,0.12942613661289215,0,0,117.64278633124749
127,0.2503243300016038,165.20704638890476,0.0,106,20.249444444444443,0.4471553996686644,0.3777778148651123,0.12942613661289215,0,0,117.7588332773239
128,0.25163504700321937,165.20704638890476,0.0,106,20.249444444444443,0.4471553996686644,0.3780220150947571,0.12942613661289215,0,0,117.8710600726194
129,0.25292539200017927,165.20704638890476,0.0,125,20.249444444444443,0.4471553996686644,0.37826621532440186,0.12869353592395782,0,0,117.98457393550494
