,Time [sec],Motor angle [rad],Motor speed [rad/sec],Motor current [units],Linear encoder [mm],Joint angle [rad],Force sensor on motor [units],Force sensor on handle [units],Desired motor angle [rad],Desired motor speed [rad/sec],Desired motor current[units],Desired w [Hz]
0,1.0783999641716946e-05,0.0,0.0,-39,17.815277777777776,0.5928835745178003,0.21880343556404114,0.0034188036806881428,0,0,0,0
1,0.0012140349999754108,0.0,0.0,-5,17.815277777777776,0.5928835745178003,0.21880343556404114,0.002930403221398592,0,0,0,0
2,0.0024281830001200433,-0.0011504855909142409,-0.4188790204786391,20,17.815277777777776,0.5928835745178003,0.2190476357936859,0.0031746034510433674,0,0,0,0
3,0.0035464470001898007,-0.0034514567727427226,-1.7802358370342162,59,17.815277777777776,0.5928835745178003,0.2190476357936859,0.0039072041399776936,0,0,0,0
4,0.0046729839996260125,-0.003067961575771272,-1.0995574287564276,104,17.815277777777776,0.5928835745178003,0.2190476357936859,0.004884005058556795,0,0,0,0
5,0.005802386000141269,0.007286408742456785,5.218534463463046,138,17.815277777777776,0.5928835745178003,0.21978023648262024,0.00463980482891202,0,0,0,0
6,0.0070617339997625095,0.037966024500169615,19.687313962496038,125,17.815277777777776,0.5928835745178003,0.22075703740119934,0.0039072041399776936,0,0,0,0
7,0.008164750000105414,0.07669903939428202,32.18387140677544,78,17.815277777777776,0.5928835745178003,0.22051283717155457,0.0034188036806881428,0,0,0,0
8,0.009297747999880812,0.11734953027325157,35.97123588360313,59,17.815277777777776,0.5928835745178003,0.22148963809013367,0.0034188036806881428,0,0,0,0
9,0.010423069999887957,0.15915050674313524,36.37266161156183,39,17.797638888888887,0.5928835745178003,0.22197803854942322,0.0039072041399776936,0,0,0,0
10,0.011562120000235154,0.20440293998576176,39.14773512223281,22,17.797638888888887,0.5928835745178003,0.222222238779068,0.004151404369622469,0,0,0,0
11,0.012657868000133021,0.2515728492132451,41.381756564785555,7,17.797638888888887,0.5928835745178003,0.22246643900871277,0.0031746034510433674,0,0,0,0
12,0.013786355999400257,0.29759227284981427,41.5213829049451,-10,17.797638888888887,0.5928835745178003,0.2241758406162262,0.0039072041399776936,0,0,0,0
13,0.014901331000146456,0.33594179254695533,37.05334001983962,1,17.797638888888887,0.5928835745178003,0.22466424107551575,0.003663003910332918,0,0,0,0
14,0.01616315499995835,0.3735243218501537,30.438542154781107,15,17.779999999999998,0.5928835745178003,0.22490844130516052,0.0039072041399776936,0,0,0,0
15,0.017290060999584966,0.41072335595638043,31.485739705977704,-1,17.779999999999998,0.5928835745178003,0.22539684176445007,0.0031746034510433674,0,0,0,0
16,0.01860296799986827,0.45290782762323556,34.29571980168858,-5,17.779999999999998,0.5928835745178003,0.22686204314231873,0.0031746034510433674,0,0,0,0
17,0.020078224999451777,0.49240783291129075,27.942721324429215,4,17.779999999999998,0.5928835745178003,0.22686204314231873,0.0034188036806881428,0,0,0,0
18,0.021181305999562028,0.5169515255174612,22.305307840487533,12,17.779999999999998,0.5928835745178003,0.22783884406089783,0.003663003910332918,0,0,0,0
19,0.022428104000027815,0.548781626866088,23.963370629882146,21,17.779999999999998,0.5928835745178003,0.22881564497947693,0.0039072041399776936,0,0,0,0
20,0.024049546000242117,0.5951845456996289,28.48377339254746,24,17.779999999999998,0.5928835745178003,0.23028084635734558,0.0039072041399776936,0,0,0,0
21,0.025182200000017474,0.6258641614573416,28.221974004748308,16,17.76236111111111,0.5928835745178003,0.23150184750556946,0.0034188036806881428,0,0,0,0
22,0.026298762999431347,0.654242806033226,25.656340004316643,29,17.76236111111111,0.5928835745178003,0.23076924681663513,0.0034188036806881428,0,0,0,0
23,0.027421253000284196,0.6837719362000246,25.62143341927676,51,17.76236111111111,0.5928835745178003,0.231990247964859,0.0034188036806881428,0,0,0,0
24,0.028549558999657165,0.7175195135335087,28.48377339254746,32,17.76236111111111,0.5928835745178003,0.23272284865379333,0.0034188036806881428,0,0,0,0
25,0.029695850999814866,0.756252528427621,32.6551103048139,20,17.76236111111111,0.5928835745178003,0.23321124911308289,0.003663003910332918,0,0,0,0
26,0.03091103499991732,0.8022719520641902,36.425021489121654,3,17.76236111111111,0.5928835745178003,0.23443225026130676,0.0031746034510433674,0,0,0,0
27,0.032050828999672376,0.8406214717613313,35.63962332572421,1,17.744722222222222,0.5928835745178003,0.2351648509502411,0.002930403221398592,0,0,0,0
28,0.03315547500005778,0.8732185635039013,30.66543495754037,10,17.744722222222222,0.5928835745178003,0.23565325140953064,0.004151404369622469,0,0,0,0
29,0.03429424499972811,0.9081166264282995,29.164451800825248,16,17.744722222222222,0.5928835745178003,0.23638585209846497,0.0031746034510433674,0,0,0,0
30,0.035420622999481566,0.951451583686069,36.302848441482055,5,17.727083333333333,0.5928835745178003,0.2380952537059784,0.003663003910332918,0,0,0,0
31,0.03653785799997422,0.9909515889741242,37.26277953007894,-3,17.727083333333333,0.5928835745178003,0.23785105347633362,0.0031746034510433674,0,0,0,0
32,0.0376613290000023,1.01971372874698,28.989918875625815,3,17.727083333333333,0.5928835745178003,0.23833945393562317,0.0034188036806881428,0,0,0,0
33,0.0387887890001366,1.0454079069440643,23.125612588924866,27,17.709444444444443,0.5928835745178003,0.2380952537059784,0.004151404369622469,0,0,0,0
34,0.039900220000163245,1.0780049986866342,25.970499269675624,35,17.709444444444443,0.5928835745178003,0.2380952537059784,0.004151404369622469,0,0,0,0
35,0.041076301999964926,1.118655489565604,34.57497248200767,11,17.709444444444443,0.5928835745178003,0.23931625485420227,0.0024420025292783976,0,0,0,0
36,0.04230110299977241,1.1581554948536592,33.35324200561164,3,17.691805555555554,0.5928835745178003,0.2390720546245575,0.002930403221398592,0,0,0,0
37,0.04342283499954647,1.1861506442325722,26.563911215353695,30,17.691805555555554,0.5928835745178003,0.2390720546245575,0.004151404369622469,0,0,0,0
38,0.044717977999425784,1.2149127840054277,23.212879051524585,47,17.674166666666665,0.5928835745178003,0.2400488555431366,0.003663003910332918,0,0,0,0
39,0.04600569899957918,1.2475098757479977,24.94075501099897,51,17.674166666666665,0.5928835745178003,0.23956045508384705,0.004395604599267244,0,0,0,0
40,0.04736668500027008,1.2873933762330245,28.48377339254746,23,17.656527777777775,0.5928835745178003,0.24126985669136047,0.0031746034510433674,0,0,0,0
41,0.048942585999611765,1.3387817326271936,31.31120678077827,35,17.656527777777775,0.5928835745178003,0.24151405692100525,0.003663003910332918,0,0,0,0
42,0.05003701500027091,1.372912805157649,31.206487025658614,18,17.63888888888889,0.5928835745178003,0.2420024573802948,0.0031746034510433674,0,0,0,0
43,0.05115399799979059,1.4016749449305048,27.035150113392163,12,17.63888888888889,0.5928835745178003,0.24322345852851868,0.0034188036806881428,0,0,0,0
44,0.0522912409996934,1.434655531870046,27.07005669843205,40,17.62125,0.5928835745178003,0.24371185898780823,0.004151404369622469,0,0,0,0
45,0.05339082099999359,1.4733885467641583,32.91690969261305,29,17.62125,0.5928835745178003,0.24468865990638733,0.003663003910332918,0,0,0,0
46,0.05454740200002561,1.5128885520522135,35.447637108004834,-5,17.60361111111111,0.5928835745178003,0.24566546082496643,0.0034188036806881428,0,0,0,0
47,0.05564952799977618,1.5458691389917552,31.730085801256912,0,17.60361111111111,0.5928835745178003,0.2459096610546112,0.004395604599267244,0,0,0,0
48,0.05695657399974152,1.5765487547494677,27.17477645355171,28,17.58597222222222,0.5928835745178003,0.24664226174354553,0.0039072041399776936,0,0,0,0
49,0.058166289999462606,1.6225681783860368,32.11405823669566,12,17.58597222222222,0.5928835745178003,0.2459096610546112,0.0031746034510433674,0,0,0,0
50,0.05927615600012359,1.6620681836740925,35.2731041828054,-6,17.58597222222222,0.5928835745178003,0.24639806151390076,0.004151404369622469,0,0,0,0
51,0.06039624200002436,1.6977332369924336,33.35324200561164,0,17.58597222222222,0.5928835745178003,0.24713066220283508,0.0031746034510433674,0,0,0,0
52,0.06154997700014064,1.7303303287350031,29.49606435870417,10,17.58597222222222,0.5928835745178003,0.24761906266212463,0.0039072041399776936,0,0,0,0
53,0.06263355099963519,1.7633109156745448,28.902652413026097,12,17.58597222222222,0.5928835745178003,0.2478632628917694,0.0039072041399776936,0,0,0,0
54,0.0637598839994098,1.7974419882050001,30.12438288942213,14,17.58597222222222,0.5928835745178003,0.2488400638103485,0.0039072041399776936,0,0,0,0
55,0.06489722700007405,1.8342575271142554,31.695179216217024,11,17.56833333333333,0.5928835745178003,0.24932846426963806,0.004395604599267244,0,0,0,0
56,0.06601580799997464,1.871073066023511,33.021629447732714,7,17.56833333333333,0.5928835745178003,0.24835166335105896,0.004151404369622469,0,0,0,0
57,0.06713563699941005,1.9052041385539664,31.799898971336685,13,17.56833333333333,0.5928835745178003,0.2498168647289276,0.002930403221398592,0,0,0,0
58,0.06828046299960988,1.9328157927359078,26.21484536495483,19,17.56833333333333,0.5928835745178003,0.24932846426963806,0.004151404369622469,0,0,0,0
59,0.06939471700025024,1.9608109421148208,23.928464044842258,37,17.56833333333333,0.5928835745178003,0.2488400638103485,0.00463980482891202,0,0,0,0
60,0.07052442099939071,1.9949420146452765,28.169614127188478,37,17.56833333333333,0.5928835745178003,0.24932846426963806,0.0039072041399776936,0,0,0,0
61,0.07192997499987541,2.0363594959181888,33.004176155212775,21,17.56833333333333,0.5928835745178003,0.24859586358070374,0.004151404369622469,0,0,0,0
62,0.07317686799979128,2.073175034827444,28.65830631774689,19,17.56833333333333,0.5928835745178003,0.24932846426963806,0.0039072041399776936,0,0,0,0
63,0.0745952639999814,2.0996362034184712,21.83406894244906,47,17.56833333333333,0.5928835745178003,0.2488400638103485,0.0039072041399776936,0,0,0,0
64,0.07578901800025051,2.141437179888355,27.64601535159018,54,17.56833333333333,0.5928835745178003,0.2500610649585724,0.0024420025292783976,0,0,0,0
65,0.07689891100017121,2.183238156358239,36.093408931242735,25,17.56833333333333,0.5928835745178003,0.25030526518821716,0.002930403221398592,0,0,0,0
66,0.07801571199979662,2.219670200070523,34.48770601940795,4,17.56833333333333,0.5928835745178003,0.2498168647289276,0.0034188036806881428,0,0,0,0
67,0.0791470730000583,2.2518837966161214,29.478611066184225,7,17.550694444444442,0.5928835745178003,0.2488400638103485,0.003663003910332918,0,0,0,0
68,0.0802704449997691,2.2848643835556626,28.797932657906436,17,17.550694444444442,0.5928835745178003,0.24835166335105896,0.004395604599267244,0,0,0,0
69,0.08139432200005103,2.3209129320709754,31.119220563058896,25,17.550694444444442,0.5928835745178003,0.24810746312141418,0.003663003910332918,0,0,0,0
70,0.08251725799982523,2.358111966177202,32.81218993749339,12,17.550694444444442,0.5928835745178003,0.2478632628917694,0.0031746034510433674,0,0,0,0
71,0.08365534099993965,2.394544009889486,33.03908274025266,-1,17.550694444444442,0.5928835745178003,0.2478632628917694,0.0031746034510433674,0,0,0,0
72,0.08476864200019918,2.426374111238113,29.82767691658309,-1,17.550694444444442,0.5928835745178003,0.24566546082496643,0.003663003910332918,0,0,0,0
73,0.08590062399980525,2.45551974620794,26.302111827554548,19,17.550694444444442,0.5928835745178003,0.24517706036567688,0.002930403221398592,0,0,0,0
74,0.087005059999683,2.489267323541424,28.134707542148593,34,17.550694444444442,0.5928835745178003,0.24615386128425598,0.0031746034510433674,0,0,0,0
75,0.0881402690001778,2.5276168432385653,32.91690969261305,10,17.550694444444442,0.5928835745178003,0.24420025944709778,0.002930403221398592,0,0,0,0
76,0.08927007700003742,2.5644323821478205,33.84193419617005,0,17.550694444444442,0.5928835745178003,0.2449328601360321,0.004151404369622469,0,0,0,0
77,0.0903972079995583,2.5951119979055335,29.094638630745475,10,17.550694444444442,0.5928835745178003,0.24517706036567688,0.004395604599267244,0,0,0,0
78,0.09155806399940047,2.6242576328753606,25.778513051956246,28,17.550694444444442,0.5928835745178003,0.24517706036567688,0.003663003910332918,0,0,0,0
79,0.09319971700006136,2.676796474860444,31.485739705977704,21,17.550694444444442,0.5928835745178003,0.24468865990638733,0.0039072041399776936,0,0,0,0
80,0.09443660499982798,2.718980946527299,34.83677186980682,9,17.550694444444442,0.5928835745178003,0.24566546082496643,0.0031746034510433674,0,0,0,0
81,0.09567261499978486,2.753495514254726,29.356438018544623,19,17.550694444444442,0.5928835745178003,0.24542126059532166,0.002930403221398592,0,0,0,0
82,0.09690068999952928,2.783408139618496,24.294983187761066,40,17.550694444444442,0.5928835745178003,0.24566546082496643,0.004151404369622469,0,0,0,0
83,0.0980201570000645,2.812170279391352,24.80112867083942,49,17.550694444444442,0.5928835745178003,0.24542126059532166,0.002686202758923173,0,0,0,0
84,0.09914571599983901,2.844000380739979,27.07005669843205,42,17.550694444444442,0.5928835745178003,0.24639806151390076,0.0034188036806881428,0,0,0,0
85,0.10027441199963505,2.878514948467406,29.740410453983376,33,17.550694444444442,0.5928835745178003,0.2468864619731903,0.0031746034510433674,0,0,0,0
86,0.10139696799978992,2.9130295161948325,31.154127148098784,36,17.550694444444442,0.5928835745178003,0.24542126059532166,0.0024420025292783976,0,0,0,0
87,0.10252291999950103,2.9448596175434596,29.49606435870417,29,17.550694444444442,0.5928835745178003,0.24444445967674255,0.002930403221398592,0,0,0,0
88,0.10376663700026256,2.9763062236951154,25.307274153917778,45,17.550694444444442,0.5928835745178003,0.24420025944709778,0.004151404369622469,0,0,0,0
89,0.10489515300014318,3.0131217626043707,29.321531433504738,35,17.550694444444442,0.5928835745178003,0.24420025944709778,0.0031746034510433674,0,0,0,0
90,0.10602357599964307,3.058374195846997,38.27507049623565,26,17.550694444444442,0.5928835745178003,0.243956059217453,0.004395604599267244,0,0,0,0
91,0.10713990400017792,3.0971072107411097,37.57693879543792,10,17.550694444444442,0.5928835745178003,0.24346765875816345,0.004395604599267244,0,0,0,0
92,0.10852680100015277,3.133155759256422,27.22713633111154,5,17.533055555555556,0.5928835745178003,0.24249085783958435,0.0031746034510433674,0,0,0,0
93,0.10963339899990387,3.1692043077717345,28.65830631774689,27,17.533055555555556,0.5928835745178003,0.2420024573802948,0.0031746034510433674,0,0,0,0
94,0.11074517099950754,3.210238293847676,36.16322210132251,12,17.533055555555556,0.5928835745178003,0.24175825715065002,0.0034188036806881428,0,0,0,0
95,0.11188048700023501,3.245519851969046,33.615041393410785,-7,17.533055555555556,0.5928835745178003,0.24175825715065002,0.0034188036806881428,0,0,0,0
96,0.11300708899943857,3.275432477332816,28.029987787028933,0,17.533055555555556,0.5928835745178003,0.24078145623207092,0.0031746034510433674,0,0,0,0
97,0.11413948100016569,3.305345102696585,26.092672317315227,23,17.533055555555556,0.5928835745178003,0.24029305577278137,0.0031746034510433674,0,0,0,0
98,0.11527845000000525,3.337942194439155,28.082347664588763,28,17.533055555555556,0.5928835745178003,0.23956045508384705,0.0034188036806881428,0,0,0,0
99,0.11638588000005257,3.372840257363553,30.386182277221277,21,17.533055555555556,0.5928835745178003,0.23980465531349182,0.0039072041399776936,0,0,0,0
100,0.11772038399976736,3.4131072530455513,32.04424506661589,18,17.533055555555556,0.5928835745178003,0.23980465531349182,0.0039072041399776936,0,0,0,0
101,0.11940362799941795,3.460277162273035,31.31120678077827,11,17.533055555555556,0.5928835745178003,0.23833945393562317,0.0034188036806881428,0,0,0,0
102,0.12109568300002138,3.5116655186672046,27.192229746071654,22,17.533055555555556,0.5928835745178003,0.23760685324668884,0.0034188036806881428,0,0,0,0
103,0.12268531100016844,3.5615198942734874,30.316369107141504,21,17.533055555555556,0.5928835745178003,0.2371184527873993,0.0034188036806881428,0,0,0,0
104,0.12390511400008108,3.601403394758514,32.34095103945493,15,17.533055555555556,0.5928835745178003,0.2371184527873993,0.0034188036806881428,0,0,0,0
105,0.12517131099957624,3.6343839816980554,28.029987787028933,25,17.533055555555556,0.5928835745178003,0.23638585209846497,0.0031746034510433674,0,0,0,0
106,0.12696524700004375,3.675034472577025,24.57423586808016,39,17.533055555555556,0.5928835745178003,0.23589745163917542,0.0031746034510433674,0,0,0,0
107,0.12820060099966213,3.7187529250317657,30.839967882739803,35,17.533055555555556,0.5928835745178003,0.23589745163917542,0.0039072041399776936,0,0,0,0
108,0.1298294319994966,3.7659228342592495,31.956978604016175,23,17.533055555555556,0.5928835745178003,0.234188050031662,0.004395604599267244,0,0,0,0
109,0.1315614919994914,3.81501021947159,27.995081201989045,33,17.533055555555556,0.5928835745178003,0.231990247964859,0.0031746034510433674,0,0,0,0
110,0.13262248099999852,3.852592748774788,28.989918875625815,36,17.533055555555556,0.5928835745178003,0.22954824566841125,0.0031746034510433674,0,0,0,0
111,0.133746489999794,3.890175278077986,32.23623128433527,17,17.533055555555556,0.5928835745178003,0.22857144474983215,0.0039072041399776936,0,0,0,0
112,0.13485597899943969,3.930825768956956,35.41273052296495,17,17.533055555555556,0.5928835745178003,0.22661784291267395,0.002930403221398592,0,0,0,0
113,0.13620575499953702,3.9733937358207823,35.16838442768574,3,17.533055555555556,0.5928835745178003,0.22661784291267395,0.0039072041399776936,0,0,0,0
114,0.13729749199956132,4.005223837169408,30.14183618194207,23,17.533055555555556,0.5928835745178003,0.2261294424533844,0.00463980482891202,0,0,0,0
115,0.13837312499981635,4.036670443321064,27.00024352835228,27,17.533055555555556,0.5928835745178003,0.2251526415348053,0.0031746034510433674,0,0,0,0
116,0.1394917079996958,4.07617044860912,32.585297134734134,5,17.533055555555556,0.5928835745178003,0.22344323992729187,0.0039072041399776936,0,0,0,0
117,0.1406152049994489,4.116053949094146,36.425021489121654,-15,17.533055555555556,0.5928835745178003,0.2231990396976471,0.003663003910332918,0,0,0,0
118,0.14202378099980706,4.149418031230659,29.688050576423546,1,17.533055555555556,0.5928835745178003,0.22197803854942322,0.002930403221398592,0,0,0,0
119,0.1436183189998701,4.1862335701399145,22.165681500327985,37,17.533055555555556,0.5928835745178003,0.22051283717155457,0.0039072041399776936,0,0,0,0
120,0.14510455900017405,4.236087945746198,31.101767270538954,25,17.515416666666667,0.5928835745178003,0.2183150351047516,0.0039072041399776936,0,0,0,0
121,0.14644908199989004,4.285558826155509,37.14060648243933,0,17.515416666666667,0.5928835745178003,0.2183150351047516,0.004395604599267244,0,0,0,0
122,0.14794991100006882,4.326209317034479,28.274333882308138,10,17.515416666666667,0.5928835745178003,0.21660563349723816,0.004395604599267244,0,0,0,0
123,0.14937138499954017,4.359956894367963,24.434609527920614,23,17.515416666666667,0.5928835745178003,0.21562883257865906,0.003663003910332918,0,0,0,0
124,0.15097957699981635,4.405592822807561,27.768188399229782,30,17.515416666666667,0.5928835745178003,0.21562883257865906,0.0031746034510433674,0,0,0,0
125,0.15248327199969935,4.451995741641102,30.386182277221277,24,17.515416666666667,0.5928835745178003,0.21562883257865906,0.0039072041399776936,0,0,0,0
126,0.15382103299998562,4.494563708504928,31.34611336581816,16,17.515416666666667,0.5928835745178003,0.21440783143043518,0.002930403221398592,0,0,0,0
127,0.1552001680001922,4.531762742611155,27.995081201989045,20,17.515416666666667,0.5928835745178003,0.21343103051185608,0.002930403221398592,0,0,0,0
128,0.15653645000020333,4.570112262308296,27.22713633111154,40,17.515416666666667,0.5928835745178003,0.21245422959327698,0.003663003910332918,0,0,0,0
129,0.15811916799975734,4.621500618702465,33.35324200561164,26,17.515416666666667,0.5928835745178003,0.21050062775611877,0.002930403221398592,0,0,0,0
130,0.1598992230001386,4.676723927066348,32.25368457685521,13,17.515416666666667,0.5928835745178003,0.21050062775611877,0.004151404369622469,0,0,0,0
