,Time [sec],Motor angle [rad],Motor speed [rad/sec],Motor current [units],Linear encoder [mm],Joint angle [rad],Force sensor on motor [units],Force sensor on handle [units],Desired motor angle [rad],Desired motor speed [rad/sec],Desired motor current[units]
0,1.1163996532559395e-05,0.0,0.0,0,0.0,0.0,0.16214896738529205,0.0017094018403440714,0,0,0
1,0.0011640090015134774,0.0,0.0,-6,0.0,0.0,0.16239316761493683,0.0019536020699888468,0,0,0
2,0.0022775820034439676,-0.0007669903939429012,-0.3490658503988659,22,0.0,0.0,0.16141636669635773,0.0012210012646391988,0,0,0
3,0.0033995260018855333,-0.003834951969714062,-2.059488517353309,50,0.0,0.0,0.1616605669260025,0.000732600805349648,0,0,0
4,0.004530625999905169,-0.005368932757599865,-2.2689280275926285,103,0.0,0.0,0.16190476715564728,0.0004884005174972117,0,0,0
5,0.0056534609975642525,0.0011504855909141298,2.5132741228718345,151,0.0,0.0,0.16141636669635773,0.000732600805349648,0,0,0
6,0.006815339002059773,0.023776702212227274,14.084807063594239,153,-0.017638888888888888,0.0,0.16117216646671295,0.000732600805349648,0,0,0
7,0.008178932002920192,0.0805339913639962,36.791540632040466,66,-0.017638888888888888,0.0,0.16092796623706818,0.0009768010349944234,0,0,0
8,0.009459196997340769,0.1392087565006217,47.595128701885365,17,-0.017638888888888888,0.0,0.15921856462955475,0.001465201610699296,0,0,0
9,0.010974047996569425,0.19788352163724765,40.02039974822998,-13,-0.017638888888888888,0.0,0.1587301641702652,0.0012210012646391988,0,0,0
10,0.01244529899850022,0.25770877236478773,39.53170755767157,-6,-0.017638888888888888,0.0,0.15897436439990997,0.0009768010349944234,0,0,0
11,0.013668975996552035,0.3090971287589568,40.997784129346805,-35,-0.017638888888888888,0.0,0.15995116531848907,0.0012210012646391988,0,0,0
12,0.014799031996517442,0.35013111483489734,38.851029149393774,-35,-0.017638888888888888,0.0,0.15921856462955475,0.0017094018403440714,0,0,0
13,0.015918792996671982,0.383111701774439,32.04424506661589,-10,-0.017638888888888888,0.0,0.15946276485919952,0.0012210012646391988,0,0,0
14,0.017041437000443693,0.4149418031230656,27.628562059070237,-10,-0.017638888888888888,0.0,0.15946276485919952,0.002197802299633622,0,0,0
15,0.018192545998317655,0.4498398660474643,29.96730325674264,-3,-0.017638888888888888,0.0,0.15921856462955475,0.0009768010349944234,0,0,0
16,0.019424609999987297,0.4885728809415766,31.747539093776854,-5,-0.017638888888888888,0.0,0.15799756348133087,0.0009768010349944234,0,0,0
17,0.020551815003273077,0.5188690015023179,28.466320100027517,-5,-0.017638888888888888,0.0,0.15799756348133087,0.0012210012646391988,0,0,0
18,0.021663157996954396,0.5430291989115168,23.387411976724017,10,-0.017638888888888888,0.0,0.15824176371097565,0.00024420025874860585,0,0,0
19,0.02276964300108375,0.5679563867146586,21.362830044410593,27,-0.017638888888888888,0.0,0.15799756348133087,0.001465201610699296,0,0,0
20,0.02389690899872221,0.5978690120784287,24.853488548399252,35,-0.017638888888888888,0.0,0.1577533632516861,0.0012210012646391988,0,0,0
21,0.025045424001291394,0.6312330942149411,28.64085302522695,25,-0.017638888888888888,0.0,0.15799756348133087,0.000732600805349648,0,0,0
22,0.02614398900186643,0.6630631955635682,29.12954521578536,21,-0.017638888888888888,0.0,0.15799756348133087,0.0017094018403440714,0,0,0
23,0.02729930899658939,0.6922088305333953,26.563911215353695,29,-0.017638888888888888,0.0,0.15750916302204132,0.0019536020699888468,0,0,0
24,0.0284126210026443,0.7213544655032225,25.58652683423687,43,-0.017638888888888888,0.0,0.15799756348133087,0.0012210012646391988,0,0,0
25,0.02952486200229032,0.7539515572457924,27.942721324429215,39,-0.017638888888888888,0.0,0.15750916302204132,0.001465201610699296,0,0,0
26,0.030666760001622606,0.7900001057611052,30.839967882739803,28,-0.017638888888888888,0.0,0.1577533632516861,0.0019536020699888468,0,0,0
27,0.03178518600179814,0.8287331206552175,33.597588100890846,14,-0.017638888888888888,0.0,0.15824176371097565,0.002197802299633622,0,0,0
28,0.03295076700305799,0.8655486595644728,33.85938748868999,6,-0.017638888888888888,0.0,0.15921856462955475,0.001465201610699296,0,0,0
29,0.03419664600369288,0.8992962368979569,28.65830631774689,13,-0.017638888888888888,0.0,0.15946276485919952,0.0009768010349944234,0,0,0
30,0.035430459000053816,0.9361117758072126,27.436575841350862,36,-0.017638888888888888,0.0,0.15946276485919952,0.00024420025874860585,0,0,0
31,0.036681186997157056,0.9844321706256101,36.66936758440087,10,-0.017638888888888888,0.0,0.16019536554813385,0.0004884005174972117,0,0,0
32,0.03793872200185433,1.0277671278833793,37.21041965251911,-14,-0.017638888888888888,0.0,0.15946276485919952,0.0004884005174972117,0,0,0
33,0.03918376100045862,1.0603642196259493,27.680921936630067,13,-0.017638888888888888,0.0,0.15995116531848907,0.0009768010349944234,0,0,0
34,0.04053921499871649,1.103699176883719,29.426251188624395,12,-0.017638888888888888,0.0,0.16117216646671295,0.0019536020699888468,0,0,0
35,0.04205565900338115,1.1566215140657734,35.7967029584037,8,-0.017638888888888888,0.0,0.16190476715564728,0.001465201610699296,0,0,0
36,0.04314092099957634,1.1892186058083434,31.084313978019008,7,-0.017638888888888888,0.0,0.16214896738529205,0.001465201610699296,0,0,0
37,0.04429195800184971,1.2187477359751417,26.878070480712676,-1,-0.017638888888888888,0.0,0.16214896738529205,0.0017094018403440714,0,0,0
38,0.04553431500244187,1.2524953133086258,26.563911215353695,31,-0.017638888888888888,0.0,0.16434676945209503,0.001465201610699296,0,0,0
39,0.046650493997731246,1.2850924050511958,28.169614127188478,11,-0.017638888888888888,0.0,0.1636141687631607,0.0004884005174972117,0,0,0
40,0.04778000099759083,1.3196069727786224,30.194196059501902,9,-0.017638888888888888,0.0,0.16410256922245026,0.0009768010349944234,0,0,0
41,0.04889737100165803,1.3548885308999923,31.049407392979123,10,-0.017638888888888888,0.0,0.16434676945209503,0.001465201610699296,0,0,0
42,0.05001810700196074,1.389019603430448,30.7177948351002,15,-0.017638888888888888,0.0,0.1636141687631607,0.0009768010349944234,0,0,0
43,0.05114690399932442,1.4212331999760464,29.792770331543206,10,-0.017638888888888888,0.0,0.16336996853351593,0.001465201610699296,0,0,0
44,0.052274305002356414,1.4507623301428447,26.47664475275398,20,-0.017638888888888888,0.0,0.1636141687631607,0.0009768010349944234,0,0,0
45,0.05338446800305974,1.4860438882642146,29.251718263424962,23,-0.035277777777777776,0.0,0.1636141687631607,0.000732600805349648,0,0,0
46,0.05450428099720739,1.5224759319764987,32.637657012293964,13,-0.035277777777777776,0.0,0.16434676945209503,0.000732600805349648,0,0,0
47,0.055748596001649275,1.5581409852948402,29.96730325674264,15,-0.035277777777777776,0.0,0.16532357037067413,0.0012210012646391988,0,0,0
48,0.0568940110024414,1.584602153885867,24.556782575560216,32,-0.035277777777777776,0.0,0.16532357037067413,0.0009768010349944234,0,0,0
49,0.05799844799912535,1.6160487600375228,25.778513051956246,43,-0.035277777777777776,0.0,0.16581197082996368,0.0009768010349944234,0,0,0
50,0.05912616600107867,1.6524808037498069,30.962140930379405,23,-0.035277777777777776,0.0,0.166544571518898,0.000732600805349648,0,0,0
51,0.06028880400117487,1.6885293522651192,32.77728335245351,13,-0.035277777777777776,0.0,0.16678877174854279,0.001465201610699296,0,0,0
52,0.061523958000179846,1.7249613959774033,29.88003679414292,20,-0.035277777777777776,0.0,0.1677655726671219,0.0009768010349944234,0,0,0
53,0.06263284199667396,1.7567914973260308,28.256880589788196,27,-0.035277777777777776,-0.0007669903939428206,0.1684981733560562,0.0009768010349944234,0,0,0
54,0.06397235600161366,1.7913060650534574,29.740410453983376,25,-0.035277777777777776,-0.0007669903939428206,0.16800977289676666,0.0019536020699888468,0,0,0
55,0.06514109300042037,1.8384759742809411,33.457961760731294,18,-0.035277777777777776,-0.0007669903939428206,0.16825397312641144,0.000732600805349648,0,0,0
56,0.06639625800016802,1.882961417129624,35.709436495803985,15,-0.035277777777777776,-0.0007669903939428206,0.16898657381534576,0.001465201610699296,0,0,0
57,0.06751508799789008,1.9190099656449373,33.68485456349056,-2,-0.035277777777777776,-0.0007669903939428206,0.1684981733560562,0.0004884005174972117,0,0,0
58,0.06870416900346754,1.9493060862056781,28.413960222467686,2,-0.035277777777777776,-0.0007669903939428206,0.168742373585701,0.0004884005174972117,0,0,0
59,0.06991255399771035,1.9888060914937338,29.23426497090502,21,-0.035277777777777776,-0.0007669903939428206,0.16947497427463531,0.0009768010349944234,0,0,0
60,0.0711416289996123,2.035209010327274,36.4424747816416,-15,-0.035277777777777776,-0.0007669903939428206,0.1697191745042801,0.0019536020699888468,0,0,0
61,0.07225809500232572,2.0708740636456158,34.67969223712733,-1,-0.035277777777777776,-0.0007669903939428206,0.17118437588214874,0.0009768010349944234,0,0,0
62,0.07338640999660129,2.0969517370396717,26.11012560983517,9,-0.035277777777777776,-0.0007669903939428206,0.17313797771930695,0.000732600805349648,0,0,0
63,0.07450941899878671,2.1222624200397844,21.83406894244906,15,-0.035277777777777776,-0.0007669903939428206,0.17387057840824127,0.0009768010349944234,0,0,0
64,0.07563688699883642,2.156776987767211,26.91297706575256,43,-0.035277777777777776,-0.0007669903939428206,0.17484737932682037,0.0009768010349944234,0,0,0
65,0.07675325099990005,2.197043983449209,35.063664672566084,-2,-0.035277777777777776,-0.0007669903939428206,0.17582418024539948,0.0012210012646391988,0,0,0
66,0.07788006900227629,2.232325541570579,33.40560188317147,6,-0.035277777777777776,-0.0007669903939428206,0.17582418024539948,0.001465201610699296,0,0,0
67,0.07900914100173395,2.2603206909494924,26.720990848033185,20,-0.035277777777777776,-0.0007669903939428206,0.17509157955646515,0.002930403221398592,0,0,0
68,0.08011727400298696,2.287165354737491,23.841197582242543,30,-0.035277777777777776,-0.0007669903939428206,0.17484737932682037,0.0,0,0,0
69,0.08126185199944302,2.317077980101261,25.5167136641571,33,-0.035277777777777776,-0.0007669903939428206,0.17338217794895172,0.0017094018403440714,0,0,0
70,0.08254852599930018,2.3542770142074874,28.902652413026097,31,-0.035277777777777776,-0.0007669903939428206,0.17411477863788605,0.0012210012646391988,0,0,0
71,0.0838152819997049,2.3941605146925147,31.31120678077827,23,-0.035277777777777776,-0.0007669903939428206,0.17435897886753082,0.0009768010349944234,0,0,0
72,0.08550374599872157,2.4336605199805694,32.13151152921561,16,-0.035277777777777776,-0.0007669903939428206,0.17582418024539948,0.0009768010349944234,0,0,0
73,0.08676845100126229,2.481213924405025,27.07005669843205,27,-0.035277777777777776,-0.0007669903939428206,0.17533577978610992,0.0012210012646391988,0,0,0
74,0.08789584400074091,2.514961501738509,28.029987787028933,36,-0.035277777777777776,-0.0007669903939428206,0.17484737932682037,0.00024420025874860585,0,0,0
75,0.08901378599693999,2.5544615070265637,33.68485456349056,14,-0.035277777777777776,-0.0007669903939428206,0.1755799800157547,0.0012210012646391988,0,0,0
76,0.09013879200210795,2.5928110267237052,35.02875808752619,2,-0.035277777777777776,-0.0007669903939428206,0.1755799800157547,0.001465201610699296,0,0,0
77,0.09126054299849784,2.6238741376783894,30.159289474462014,8,-0.035277777777777776,-0.0007669903939428206,0.17533577978610992,0.0009768010349944234,0,0,0
78,0.09238936100155115,2.6549372486330736,26.755897433073073,23,-0.035277777777777776,-0.0007669903939428206,0.17606838047504425,0.0012210012646391988,0,0,0
79,0.09350840400293237,2.6925197779362717,30.909781052819575,22,-0.035277777777777776,-0.0007669903939428206,0.17533577978610992,0.0017094018403440714,0,0,0
80,0.09464066800137516,2.7320197832243265,35.02875808752619,17,-0.035277777777777776,-0.0007669903939428206,0.17606838047504425,0.001465201610699296,0,0,0
81,0.09576122499856865,2.767684836542668,33.35324200561164,13,-0.05291666666666667,-0.0007669903939428206,0.17606838047504425,0.0009768010349944234,0,0,0
82,0.09688920799817424,2.7998984330882664,29.321531433504738,7,-0.05291666666666667,-0.0007669903939428206,0.1765567809343338,0.0009768010349944234,0,0,0
83,0.09798918500018772,2.8321120296338647,28.518679977587343,-2,-0.05291666666666667,-0.0007669903939428206,0.17704518139362335,0.00024420025874860585,0,0,0
84,0.0991260480004712,2.8658596069673488,29.356438018544623,10,-0.05291666666666667,-0.0007669903939428206,0.17777778208255768,0.000732600805349648,0,0,0
85,0.10025362300075358,2.900757669891747,30.578168494940655,20,-0.05291666666666667,-0.0007669903939428206,0.17899878323078156,0.0012210012646391988,0,0,0
86,0.10143089800112648,2.9368062184070602,31.8871654339364,13,-0.05291666666666667,-0.0007669903939428206,0.17875458300113678,0.0012210012646391988,0,0,0
87,0.10266009699989809,2.9740052525132867,30.787608005179973,-3,-0.05291666666666667,-0.0007669903939428206,0.17973138391971588,0.001465201610699296,0,0,0
88,0.10390450099657755,3.0039178778770568,25.72615317439642,32,-0.05291666666666667,-0.0007669903939428206,0.18021978437900543,0.0017094018403440714,0,0,0
89,0.10517036999954144,3.034980988831741,23.649211364523165,33,-0.05291666666666667,-0.0007669903939428206,0.18095238506793976,0.0012210012646391988,0,0,0
90,0.10642589499911992,3.0744809941197966,29.600784113823828,38,-0.05291666666666667,-0.0007669903939428206,0.18095238506793976,0.0009768010349944234,0,0,0
91,0.1076373190007871,3.1166654657866513,33.981560536329596,8,-0.05291666666666667,-0.0007669903939428206,0.18168498575687408,0.00024420025874860585,0,0,0
92,0.10911747199861566,3.1492625575292212,28.65830631774689,12,-0.05291666666666667,-0.0007669903939428206,0.1824175864458084,0.000732600805349648,0,0,0
93,0.11068740500195418,3.1906800388021335,22.70673356844623,43,-0.05291666666666667,-0.0007669903939428206,0.18290598690509796,0.0019536020699888468,0,0,0
94,0.11211473900038982,3.2401509192114455,34.12118687648914,26,-0.05291666666666667,-0.0007669903939428206,0.18388278782367706,0.0012210012646391988,0,0,0
95,0.11400493700057268,3.298058693954128,33.335788713091695,13,-0.05291666666666667,-0.0007669903939428206,0.18485958874225616,0.001465201610699296,0,0,0
96,0.11584407900227234,3.3532820023180117,29.12954521578536,20,-0.05291666666666667,-0.0007669903939428206,0.18510378897190094,0.0009768010349944234,0,0,0
97,0.11743618600303307,3.4058208443030944,32.148964821735554,17,-0.05291666666666667,-0.0007669903939428206,0.18485958874225616,0.0009768010349944234,0,0,0
98,0.11866305500007002,3.451840267939664,33.615041393410785,5,-0.05291666666666667,-0.0007669903939428206,0.18534798920154572,0.0004884005174972117,0,0,0
99,0.12035818299773382,3.4997771675610903,30.159289474462014,9,-0.05291666666666667,-0.0007669903939428206,0.18510378897190094,0.0009768010349944234,0,0,0
100,0.12206118200265337,3.54311212481886,26.040312439755397,22,-0.05291666666666667,-0.0007669903939428206,0.18388278782367706,0.0017094018403440714,0,0,0
101,0.12399357899994357,3.605621841925199,33.52777493081107,2,-0.05291666666666667,-0.0007669903939428206,0.1824175864458084,0.0012210012646391988,0,0,0
102,0.1256994229988777,3.658927674304225,31.101767270538954,-3,-0.05291666666666667,-0.0007669903939428206,0.18315018713474274,0.0009768010349944234,0,0,0
103,0.12741808900318574,3.704563602743823,25.42944720155738,31,-0.05291666666666667,-0.0007669903939428206,0.1836385875940323,0.0009768010349944234,0,0,0
104,0.12885205799830146,3.7494325407894786,31.538099583537534,11,-0.05291666666666667,-0.0007669903939428206,0.1814407855272293,0.0012210012646391988,0,0,0
105,0.1307185039986507,3.8107917723049036,33.021629447732714,12,-0.05291666666666667,-0.0007669903939428206,0.18217338621616364,0.0012210012646391988,0,0,0
106,0.13216249700053595,3.8514422631838734,25.185101106278175,17,-0.05291666666666667,-0.0007669903939428206,0.18119658529758453,0.0009768010349944234,0,0,0
107,0.13398293699719943,3.897461686820443,26.162485487395,25,-0.05291666666666667,-0.0007669903939428206,0.17924298346042633,0.0004884005174972117,0,0,0
108,0.13584185999934562,3.949617033608554,29.600784113823828,18,-0.05291666666666667,-0.0015339807878856412,0.18021978437900543,0.0012210012646391988,0,0,0
109,0.1374961359979352,3.999471409214838,30.962140930379405,10,-0.05291666666666667,-0.0015339807878856412,0.17875458300113678,0.0009768010349944234,0,0,0
110,0.13934609900024952,4.047024813639292,25.062928058638573,36,-0.07055555555555555,-0.0015339807878856412,0.17777778208255768,0.0009768010349944234,0,0,0
111,0.14077307400293648,4.102248122003176,32.532937257174304,25,-0.07055555555555555,-0.0015339807878856412,0.17802198231220245,0.0004884005174972117,0,0,0
112,0.1425864319971879,4.162456867927687,38.0132711084365,-3,-0.07055555555555555,-0.0015339807878856412,0.17704518139362335,0.0009768010349944234,0,0,0
113,0.144305660003738,4.210777262746085,25.202554398798117,20,-0.07055555555555555,-0.0015339807878856412,0.1765567809343338,0.0019536020699888468,0,0,0
114,0.1460627909982577,4.266384066306939,33.545228223331016,13,-0.07055555555555555,-0.0015339807878856412,0.1755799800157547,0.0012210012646391988,0,0,0
115,0.14781393299927004,4.322374365064765,32.532937257174304,7,-0.07055555555555555,-0.0015339807878856412,0.1746031790971756,0.00024420025874860585,0,0,0
116,0.1495291859973804,4.368777283898306,26.406831582674204,20,-0.07055555555555555,-0.0015339807878856412,0.17387057840824127,0.0012210012646391988,0,0,0
117,0.15115663900360232,4.415180202731847,28.152160834668535,28,-0.07055555555555555,-0.0015339807878856412,0.17289377748966217,0.0009768010349944234,0,0,0
118,0.15270130900171353,4.466952054322987,31.799898971336685,17,-0.07055555555555555,-0.0015339807878856412,0.17118437588214874,0.0009768010349944234,0,0,0
119,0.1541773770004511,4.5106705067777275,32.20132469929538,20,-0.07055555555555555,-0.0015339807878856412,0.17045177519321442,0.0012210012646391988,0,0,0
120,0.15575680899928557,4.5601413871870395,30.82251459021986,8,-0.07055555555555555,-0.0015339807878856412,0.17045177519321442,0.0009768010349944234,0,0,0
121,0.1572465889985324,4.601942363656923,27.454029133870804,31,-0.07055555555555555,-0.0015339807878856412,0.1706959754228592,0.0012210012646391988,0,0,0
122,0.15875534099905053,4.6514132440662355,32.637657012293964,5,-0.07055555555555555,-0.0015339807878856412,0.17142857611179352,0.0004884005174972117,0,0,0
123,0.1603295730019454,4.699350143687662,30.438542154781107,-1,-0.07055555555555555,-0.0015339807878856412,0.16996337473392487,0.0009768010349944234,0,0,0
124,0.16174830900126835,4.732714225824174,24.347343065320896,34,-0.07055555555555555,-0.0015339807878856412,0.17045177519321442,0.002197802299633622,0,0,0
125,0.1632445529976394,4.7779666590668,28.92010570554604,18,-0.07055555555555555,-0.0015339807878856412,0.16947497427463531,0.000732600805349648,0,0,0
126,0.16494152099767234,4.830505501051884,32.637657012293964,17,-0.07055555555555555,-0.0015339807878856412,0.16947497427463531,0.0017094018403440714,0,0,0
127,0.16648610799893504,4.876524924688453,28.58849314766712,31,-0.07055555555555555,-0.0015339807878856412,0.16996337473392487,0.0012210012646391988,0,0,0
128,0.1680202930001542,4.919476386749251,28.29178717482808,29,-0.07055555555555555,-0.0015339807878856412,0.16996337473392487,0.0012210012646391988,0,0,0
129,0.16939799900137587,4.963961829597935,31.538099583537534,10,-0.07055555555555555,-0.0015339807878856412,0.168742373585701,0.0009768010349944234,0,0,0
130,0.17069778499717358,5.0122822244163325,34.81931857728687,6,-0.07055555555555555,-0.0015339807878856412,0.16825397312641144,0.0009768010349944234,0,0,0
131,0.17212028700305382,5.056767667265016,33.597588100890846,1,-0.07055555555555555,-0.0015339807878856412,0.168742373585701,0.0012210012646391988,0,0,0
132,0.17343896700185724,5.093966701371243,27.64601535159018,11,-0.07055555555555555,-0.0015339807878856412,0.16630037128925323,0.001465201610699296,0,0,0
133,0.1748806519972277,5.140369620204784,31.276300195738386,12,-0.07055555555555555,-0.0015339807878856412,0.16532357037067413,0.0009768010349944234,0,0,0
