,Time [sec],Motor angle [rad],Motor speed [rad/sec],Motor current [units],Linear encoder [mm],Joint angle [rad],Force sensor on motor [units],Force sensor on handle [units],Desired motor angle [rad],Desired motor speed [rad/sec],Desired motor current[units]
0,9.774000318429898e-06,0.0,0.0,-2,8.254999999999999,0.5062136600022615,0.21587303280830383,0.002197802299633622,0,0,0
1,0.00124545600010606,0.0,0.0,-4,8.254999999999999,0.5062136600022615,0.21562883257865906,0.0019536020699888468,0,0,0
2,0.0024271960000987747,0.0,0.0,18,8.254999999999999,0.5062136600022615,0.21587303280830383,0.001465201610699296,0,0,0
3,0.0036138430004939437,-0.0007669903939429012,-0.4537856055185257,46,8.254999999999999,0.5062136600022615,0.21636143326759338,0.002686202758923173,0,0,0
4,0.004738214000099106,0.001917475984857031,0.8028514559173916,105,8.254999999999999,0.5062136600022615,0.21660563349723816,0.0019536020699888468,0,0,0
5,0.005879657000150473,0.012271846303085088,6.318091892219473,139,8.254999999999999,0.5062136600022615,0.21660563349723816,0.0017094018403440714,0,0,0
6,0.006984764000662835,0.034131072530455775,15.219271077390554,120,8.254999999999999,0.5062136600022615,0.21489623188972473,0.0019536020699888468,0,0,0
7,0.008109680999950797,0.07094661143971104,28.06489437206882,85,8.254999999999999,0.5062136600022615,0.21538463234901428,0.0019536020699888468,0,0,0
8,0.00926428799994028,0.11773302547022313,38.851029149393774,50,8.254999999999999,0.5062136600022615,0.21465203166007996,0.0012210012646391988,0,0,0
9,0.010503505000087898,0.17257283863713457,43.42379178961892,4,8.254999999999999,0.5062136600022615,0.21489623188972473,0.0017094018403440714,0,0,0
10,0.011616574000072433,0.21897575747067544,43.109632524259936,-3,8.254999999999999,0.5062136600022615,0.21367523074150085,0.001465201610699296,0,0,0
11,0.012731705000078364,0.25847576275873063,36.9660735572399,9,8.237361111111111,0.5062136600022615,0.21440783143043518,0.0019536020699888468,0,0,0
12,0.013864989000467176,0.30219421521347156,36.54719453676126,6,8.237361111111111,0.5062136600022615,0.2141636312007904,0.002930403221398592,0,0,0
13,0.014977036000345834,0.34821363885004075,41.24213022462601,-26,8.237361111111111,0.5062136600022615,0.2141636312007904,0.0019536020699888468,0,0,0
14,0.0161156710000796,0.38617966335021015,36.80899392456041,-27,8.237361111111111,0.5062136600022615,0.2161172330379486,0.0019536020699888468,0,0,0
15,0.01722325999980967,0.4160922887139802,28.64085302522695,-4,8.237361111111111,0.5062136600022615,0.21660563349723816,0.001465201610699296,0,0,0
16,0.018342602000302577,0.4448544284868361,25.5167136641571,10,8.237361111111111,0.5062136600022615,0.21684983372688293,0.0024420025292783976,0,0,0
17,0.01949573500041879,0.47668452983546317,27.523842303950577,18,8.237361111111111,0.5062136600022615,0.21782663464546204,0.002197802299633622,0,0,0
18,0.02062840300004609,0.5081311359871186,28.29178717482808,10,8.237361111111111,0.5062136600022615,0.21758243441581726,0.0031746034510433674,0,0,0
19,0.021888773000682704,0.5376602661539174,24.94075501099897,21,8.237361111111111,0.5062136600022615,0.2190476357936859,0.0017094018403440714,0,0,0
20,0.022967190000599658,0.5610534731691734,21.554816262129968,38,8.237361111111111,0.5062136600022615,0.21953603625297546,0.0017094018403440714,0,0,0
21,0.02409155199984525,0.5859806609723148,21.362830044410593,59,8.237361111111111,0.5062136600022615,0.2202686369419098,0.0019536020699888468,0,0,0
22,0.02532676100054232,0.6147428007451707,24.15535684760152,56,8.237361111111111,0.5062136600022615,0.22100123763084412,0.0017094018403440714,0,0,0
23,0.026540888999988965,0.6507913492604835,27.90781473938933,50,8.237361111111111,0.5062136600022615,0.22295483946800232,0.002197802299633622,0,0,0
24,0.02803751600004034,0.6914418401394529,31.730085801256912,37,8.237361111111111,0.5062136600022615,0.22368744015693665,0.0019536020699888468,0,0,0
25,0.02922121700066782,0.7386117493669362,32.009338481576,22,8.219722222222222,0.5062136600022615,0.22490844130516052,0.0017094018403440714,0,0,0
26,0.030478220000077272,0.7719758315034491,27.314402793711256,32,8.219722222222222,0.5062136600022615,0.22661784291267395,0.0017094018403440714,0,0,0
27,0.03159921000042232,0.8087913704127043,29.600784113823828,40,8.219722222222222,0.5062136600022615,0.22857144474983215,0.0019536020699888468,0,0,0
28,0.03273502800038841,0.8544272988523023,38.571776469074685,21,8.219722222222222,0.5062136600022615,0.22930404543876648,0.002686202758923173,0,0,0
29,0.033984022000367986,0.8973787609131003,37.15805977495928,13,8.219722222222222,0.5062136600022615,0.23125764727592468,0.0019536020699888468,0,0,0
30,0.03509821599982388,0.9253739102920133,27.69837522915001,27,8.219722222222222,0.5062136600022615,0.23272284865379333,0.0017094018403440714,0,0,0
31,0.03623539399995934,0.9587379924285258,26.598817800393583,29,8.219722222222222,0.5062136600022615,0.23467645049095154,0.0019536020699888468,0,0,0
32,0.03734538800017617,0.997471007322638,33.929200658769766,4,8.219722222222222,0.5062136600022615,0.23052504658699036,0.0017094018403440714,0,0,0
33,0.03847369699997216,1.033903051034922,33.457961760731294,-1,8.219722222222222,0.5062136600022615,0.234188050031662,0.0017094018403440714,0,0,0
34,0.03960288100006437,1.0638156763986921,28.53613327010729,21,8.219722222222222,0.5062136600022615,0.23540905117988586,0.0024420025292783976,0,0,0
35,0.040724010999838356,1.092577816171548,25.324727446437723,44,8.219722222222222,0.5062136600022615,0.2361416518688202,0.002197802299633622,0,0,0
36,0.041959559000133595,1.1263253935050321,26.598817800393583,29,8.219722222222222,0.5062136600022615,0.23736265301704407,0.001465201610699296,0,0,0
37,0.043093760999909136,1.1600729708385162,29.0248254606657,38,8.219722222222222,0.5062136600022615,0.2380952537059784,0.0019536020699888468,0,0,0
38,0.04421630400065624,1.1957380241568574,30.92723434533952,35,8.219722222222222,0.5062136600022615,0.2400488555431366,0.0017094018403440714,0,0,0
39,0.045336350000070524,1.2302525918842844,31.57300616857742,22,8.219722222222222,0.5062136600022615,0.23882785439491272,0.001465201610699296,0,0,0
40,0.0464652800001204,1.265534150005654,30.787608005179973,17,8.219722222222222,0.5062136600022615,0.24078145623207092,0.0017094018403440714,0,0,0
41,0.0476397550000911,1.295446775369424,28.32669375986797,27,8.219722222222222,0.5062136600022615,0.23833945393562317,0.0019536020699888468,0,0,0
42,0.0488923140001134,1.3299613430968509,26.738444140553128,42,8.219722222222222,0.5062136600022615,0.23931625485420227,0.0024420025292783976,0,0,0
43,0.05012590700061992,1.3706118339758204,31.660272631177136,31,8.219722222222222,0.5062136600022615,0.23956045508384705,0.0019536020699888468,0,0,0
44,0.05135571000027994,1.4097283440669044,32.13151152921561,23,8.219722222222222,0.5062136600022615,0.2390720546245575,0.002197802299633622,0,0,0
45,0.052587911000046006,1.44117495021856,26.494098045273923,32,8.202083333333333,0.5062136600022615,0.24053725600242615,0.0019536020699888468,0,0,0
46,0.05371266700058186,1.4703205851883872,24.80112867083942,52,8.202083333333333,0.5062136600022615,0.24078145623207092,0.0024420025292783976,0,0,0
47,0.0549192429998584,1.5059856385067283,29.618237406343773,45,8.202083333333333,0.5062136600022615,0.24175825715065002,0.002197802299633622,0,0,0
48,0.05610023200006253,1.5474031197796405,33.335788713091695,26,8.202083333333333,0.5062136600022615,0.2410256564617157,0.000732600805349648,0,0,0
49,0.057309091000206536,1.581534192310096,31.433379828417877,27,8.202083333333333,0.5062136600022615,0.24151405692100525,0.0019536020699888468,0,0,0
50,0.05846146700059762,1.616815750431466,28.518679977587343,38,8.202083333333333,0.5062136600022615,0.2400488555431366,0.002197802299633622,0,0,0
51,0.05963053400046192,1.6509468229619213,29.304078140984792,32,8.202083333333333,0.5062136600022615,0.24224665760993958,0.002197802299633622,0,0,0
52,0.060931937000532344,1.6923643042348337,32.44567079457459,36,8.202083333333333,0.5062136600022615,0.24126985669136047,0.0017094018403440714,0,0,0
53,0.06242318300064653,1.744903146219917,34.99385150248631,7,8.202083333333333,0.5062136600022615,0.24224665760993958,0.002197802299633622,0,0,0
54,0.06433123199985857,1.7959080074171145,29.949849964222697,4,8.202083333333333,0.5062136600022615,0.24346765875816345,0.0019536020699888468,0,0,0
55,0.06569226900046488,1.8354080127051697,25.150194521238287,25,8.202083333333333,0.5062136600022615,0.24224665760993958,0.002197802299633622,0,0,0
56,0.06734132200017484,1.8894808354781385,35.13347784264585,3,8.202083333333333,0.5062136600022615,0.2449328601360321,0.002197802299633622,0,0,0
57,0.06888275500023155,1.9443206486450502,32.13151152921561,-1,8.202083333333333,0.5062136600022615,0.24468865990638733,0.002197802299633622,0,0,0
58,0.07027758100048231,1.9753837595997346,23.282692221604357,45,8.202083333333333,0.5062136600022615,0.24346765875816345,0.0019536020699888468,0,0,0
59,0.07215529000040988,2.0306070679636177,30.525808617380825,47,8.202083333333333,0.5062136600022615,0.2459096610546112,0.0024420025292783976,0,0,0
60,0.07396795600016048,2.0969517370396717,35.709436495803985,-1,8.202083333333333,0.5062136600022615,0.24517706036567688,0.002197802299633622,0,0,0
61,0.07557591200020397,2.1341507711458982,25.5167136641571,16,8.202083333333333,0.5062136600022615,0.24444445967674255,0.001465201610699296,0,0,0
62,0.07695299800070643,2.1717333004490964,24.609142453120047,37,8.202083333333333,0.5062136600022615,0.24542126059532166,0.002930403221398592,0,0,0
63,0.07848990200000117,2.215068257706866,28.39650692994774,29,8.202083333333333,0.5062136600022615,0.24615386128425598,0.0019536020699888468,0,0,0
64,0.08031778300028236,2.270291566070749,31.538099583537534,24,8.202083333333333,0.5062136600022615,0.2478632628917694,0.002197802299633622,0,0,0
65,0.08190421400013292,2.3220634176618895,29.897490086662867,24,8.202083333333333,0.5062136600022615,0.2478632628917694,0.0019536020699888468,0,0,0
66,0.08331658899987815,2.3550440046014307,26.337018412594432,42,8.202083333333333,0.5062136600022615,0.2490842640399933,0.0017094018403440714,0,0,0
67,0.0850760060002358,2.4129517793441138,32.56784384221419,26,8.202083333333333,0.5062136600022615,0.2507936656475067,0.0017094018403440714,0,0,0
68,0.08693100300024525,2.4735440204655967,32.951816277652945,14,8.202083333333333,0.5062136600022615,0.25054946541786194,0.002197802299633622,0,0,0
69,0.08881524700063892,2.524548881662794,26.808257310632904,41,8.202083333333333,0.5062136600022615,0.24835166335105896,0.0024420025292783976,0,0,0
70,0.09038355500069883,2.585141122784277,34.365532971768346,20,8.202083333333333,0.5062136600022615,0.2529914677143097,0.001465201610699296,0,0,0
71,0.09176264500001707,2.6261751088602177,34.12118687648914,18,8.202083333333333,0.5062136600022615,0.2520146667957306,0.0019536020699888468,0,0,0
72,0.09328651900068508,2.6691265709210157,29.094638630745475,29,8.184444444444445,0.5062136600022615,0.25347986817359924,0.0024420025292783976,0,0,0
73,0.0948588210003436,2.7166799753454707,29.042278753185645,13,8.184444444444445,0.5062136600022615,0.2549450695514679,0.0017094018403440714,0,0,0
74,0.09647949900045205,2.7680683317396397,31.34611336581816,16,8.184444444444445,0.5062136600022615,0.2549450695514679,0.001465201610699296,0,0,0
75,0.09812515100020391,2.820607173724723,32.39331091701476,5,8.184444444444445,0.5062136600022615,0.2556776702404022,0.0017094018403440714,0,0,0
76,0.09969346600064455,2.864709121376435,27.75073510670984,29,8.184444444444445,0.5062136600022615,0.25543347001075745,0.002197802299633622,0,0,0
77,0.10133749099986744,2.9061266026493473,24.870941840919198,28,8.184444444444445,0.5062136600022615,0.2571428716182709,0.0019536020699888468,0,0,0
78,0.10283609500038438,2.9552139878616877,31.93952531149623,18,8.184444444444445,0.5062136600022615,0.25811967253685,0.001465201610699296,0,0,0
79,0.10432736600068893,3.0000829259073427,31.433379828417877,20,8.184444444444445,0.5062136600022615,0.2588522732257843,0.0009768010349944234,0,0,0
80,0.10577237000052264,3.0315295320589986,21.6071761396898,56,8.184444444444445,0.5062136600022615,0.2610500752925873,0.0024420025292783976,0,0,0
81,0.1072596820004037,3.069495556559168,24.923301718479024,56,8.184444444444445,0.5062136600022615,0.26056167483329773,0.0019536020699888468,0,0,0
82,0.10853385800055548,3.1205004177563658,36.512287951721376,21,8.184444444444445,0.5062136600022615,0.2620268762111664,0.002197802299633622,0,0,0
83,0.10978980600066279,3.160767413438364,33.91174736624982,13,8.184444444444445,0.5062136600022615,0.2608058750629425,0.001465201610699296,0,0,0
84,0.11126805799995054,3.1998839235294474,28.64085302522695,27,8.184444444444445,0.5062136600022615,0.2627594769001007,0.0019536020699888468,0,0,0
85,0.11253657700035546,3.242451890393274,30.194196059501902,36,8.184444444444445,0.5062136600022615,0.26153847575187683,0.0019536020699888468,0,0,0
86,0.11377361799986829,3.2842528668631576,32.969269570172884,28,8.184444444444445,0.5062136600022615,0.2630036771297455,0.002197802299633622,0,0,0
87,0.11501555399991048,3.3260538433330415,33.80702761113017,10,8.184444444444445,0.5062136600022615,0.26324787735939026,0.002930403221398592,0,0,0
88,0.11624854300043808,3.3624858870453256,30.578168494940655,13,8.184444444444445,0.5062136600022615,0.2637362778186798,0.002686202758923173,0,0,0
89,0.11753309100004117,3.3950829787878956,26.26720524251466,28,8.184444444444445,0.5062136600022615,0.26349207758903503,0.002930403221398592,0,0,0
90,0.11878523199993651,3.433049003288065,28.832839242946324,31,8.184444444444445,0.5062136600022615,0.26422467827796936,0.001465201610699296,0,0,0
91,0.12002191000010498,3.47523347495492,33.40560188317147,27,8.184444444444445,0.5062136600022615,0.26446887850761414,0.0019536020699888468,0,0,0
92,0.12128797900004429,3.513582994652061,32.18387140677544,27,8.184444444444445,0.5062136600022615,0.2639804780483246,0.0019536020699888468,0,0,0
93,0.12249478900048416,3.545413096000688,26.42428487519415,33,8.184444444444445,0.5062136600022615,0.2637362778186798,0.002197802299633622,0,0,0
94,0.123776700000235,3.5818451397129722,27.314402793711256,43,8.184444444444445,0.5062136600022615,0.26324787735939026,0.002197802299633622,0,0,0
95,0.12521196900070208,3.63016553453137,34.138640169009086,11,8.184444444444445,0.5062136600022615,0.2620268762111664,0.002197802299633622,0,0,0
96,0.12726018200010003,3.6715830158042824,34.69714552964727,7,8.184444444444445,0.5062136600022615,0.2590964734554291,0.0017094018403440714,0,0,0
97,0.14226827699985733,3.808107305926104,30.12438288942213,35,8.184444444444445,0.5062136600022615,0.2539682686328888,0.002197802299633622,0,0,0
98,0.14347109099981026,4.1931364836854,32.42821750205464,10,8.184444444444445,0.5062136600022615,0.25250306725502014,0.001465201610699296,0,0,0
99,0.14471372100069857,4.226884061018884,27.262042916151426,15,8.184444444444445,0.5062136600022615,0.25250306725502014,0.002197802299633622,0,0,0
100,0.14595959000052972,4.2617821239432825,27.419122548830916,17,8.184444444444445,0.5062136600022615,0.25128206610679626,0.0019536020699888468,0,0,0
101,0.14710666600058175,4.294762710882824,28.902652413026097,23,8.184444444444445,0.5062136600022615,0.25225886702537537,0.0024420025292783976,0,0,0
102,0.14833298900066438,4.334262716170879,30.962140930379405,22,8.184444444444445,0.5062136600022615,0.2500610649585724,0.0024420025292783976,0,0,0
103,0.1495666490000076,4.372995731064991,31.485739705977704,23,8.184444444444445,0.5062136600022615,0.25128206610679626,0.002197802299633622,0,0,0
104,0.15068346000043675,4.407126803595447,30.7177948351002,20,8.184444444444445,0.5062136600022615,0.2500610649585724,0.0019536020699888468,0,0,0
105,0.1518108199998096,4.437039428959217,27.838001569309558,6,8.184444444444445,0.5062136600022615,0.2500610649585724,0.0019536020699888468,0,0,0
106,0.15293274400028167,4.4677190447169295,26.162485487395,36,8.184444444444445,0.5062136600022615,0.2500610649585724,0.0019536020699888468,0,0,0
107,0.15422113000022364,4.507602545201957,31.031954100459178,16,8.184444444444445,0.5062136600022615,0.24859586358070374,0.002930403221398592,0,0,0
108,0.15533038900048268,4.542500608126355,31.93952531149623,24,8.184444444444445,0.5062136600022615,0.24859586358070374,0.001465201610699296,0,0,0
109,0.15644896300000255,4.571646243096183,27.890361446869385,14,8.184444444444445,0.5062136600022615,0.24566546082496643,0.0019536020699888468,0,0,0
110,0.15755654700024024,4.599641392475095,24.294983187761066,24,8.184444444444445,0.5062136600022615,0.2449328601360321,0.0017094018403440714,0,0,0
111,0.15868079700067028,4.633388969808579,28.082347664588763,44,8.184444444444445,0.5062136600022615,0.24420025944709778,0.002686202758923173,0,0,0
112,0.15981503800048813,4.671354994308749,32.77728335245351,16,8.184444444444445,0.5062136600022615,0.24322345852851868,0.0017094018403440714,0,0,0
113,0.16095459700045467,4.70702004762709,32.88200310757317,12,8.184444444444445,0.5062136600022615,0.24249085783958435,0.0009768010349944234,0,0,0
114,0.16210416000012629,4.73961713936966,29.635690698863716,15,8.184444444444445,0.5062136600022615,0.24151405692100525,0.0017094018403440714,0,0,0
115,0.1632047130005958,4.772597726309201,28.850292535466266,31,8.184444444444445,0.5062136600022615,0.2410256564617157,0.002686202758923173,0,0,0
116,0.16448764800043136,4.808646274824514,31.031954100459178,16,8.184444444444445,0.5062136600022615,0.2390720546245575,0.0024420025292783976,0,0,0
117,0.16608594300032564,4.866170554370226,35.063664672566084,5,8.184444444444445,0.5062136600022615,0.2380952537059784,0.0024420025292783976,0,0,0
118,0.1677268230005211,4.920243377143194,34.1037335839692,0,8.184444444444445,0.5062136600022615,0.23687425255775452,0.001465201610699296,0,0,0
119,0.16945244599992293,4.9693307623555345,27.48893571891069,10,8.184444444444445,0.5062136600022615,0.23540905117988586,0.0019536020699888468,0,0,0
120,0.17102226699989842,5.023020089931532,34.7495054072071,2,8.184444444444445,0.5062136600022615,0.23369964957237244,0.0024420025292783976,0,0,0
121,0.1727455580003152,5.080544369477243,33.73721444105039,-7,8.184444444444445,0.5062136600022615,0.23076924681663513,0.0024420025292783976,0,0,0
122,0.17405894700004865,5.114291946810727,23.125612588924866,15,8.184444444444445,0.5062136600022615,0.23125764727592468,0.001465201610699296,0,0,0
123,0.17518193100022472,5.144588067371469,24.556782575560216,22,8.184444444444445,0.5062136600022615,0.2310134470462799,0.001465201610699296,0,0,0
124,0.17631119300040154,5.184088072659524,32.06169835913583,14,8.184444444444445,0.5062136600022615,0.2300366461277008,0.0017094018403440714,0,0,0
125,0.17758702199989784,5.225505553932437,35.08111796508602,3,8.184444444444445,0.5062136600022615,0.22832724452018738,0.002686202758923173,0,0,0
126,0.1788140110002132,5.258869636068949,28.256880589788196,7,8.184444444444445,0.5062136600022615,0.2290598452091217,0.002197802299633622,0,0,0
127,0.17992213600064133,5.285714299856949,24.10299697004169,25,8.184444444444445,0.5062136600022615,0.2280830442905426,0.001465201610699296,0,0,0
128,0.1810991299998932,5.314476439629804,24.539329283040274,38,8.184444444444445,0.5062136600022615,0.22759464383125305,0.0017094018403440714,0,0,0
129,0.18233048300044175,5.3497579977511736,27.768188399229782,34,8.184444444444445,0.5062136600022615,0.2261294424533844,0.0019536020699888468,0,0,0
130,0.18356540500008123,5.3888745078422575,30.246555937061732,32,8.184444444444445,0.5062136600022615,0.22661784291267395,0.0019536020699888468,0,0,0
131,0.18467434300055174,5.424156065963627,31.55555287605748,26,8.184444444444445,0.5062136600022615,0.22490844130516052,0.0017094018403440714,0,0,0
132,0.18592475300010847,5.459821119281969,29.792770331543206,24,8.184444444444445,0.5062136600022615,0.22466424107551575,0.0017094018403440714,0,0,0
133,0.18703186200036725,5.488966754251796,26.040312439755397,35,8.184444444444445,0.5062136600022615,0.2241758406162262,0.0019536020699888468,0,0,0
