,Time [sec],Motor angle [rad],Motor speed [rad/sec],Motor current [units],Motor torque [Nm],Joint angle [rad],Force sensor TSA [units],Force sensor TSA [N],Force sensor Lever [units],Force sensor Lever [N],Desired motor angle [rad],Desired motor speed [rad/sec],Desired motor current [units],Desired motor torque [Nm]
0,0.0001882739961729385,0.0,0.0,0,0.0,-0.0015339807878856412,0.19584861397743225,77.80923947407864,0.08840049058198929,10.416563049338269,0,0,0,0.0
1,0.001676261999818962,0.0,0.0,-10,-0.004734291752063532,-0.0015339807878856412,0.1963370144367218,78.00327744822783,0.08840049058198929,10.416563049338269,0,0,50,0.02367145876031766
2,0.0030521679946104996,-0.00038349519697167267,-0.03490658503988659,5,0.002367145876031766,-0.0015339807878856412,0.19658121466636658,78.10029643530244,0.08937729150056839,10.531663183828968,0,0,50,0.02367145876031766
3,0.004439452997758053,-0.00038349519697167267,-0.20943951023931956,8,0.0037874334016508257,-0.0015339807878856412,0.19682541489601135,78.19731542237705,0.08913309127092361,10.502888150206292,0,0,50,0.02367145876031766
4,0.005779818995506503,-0.00038349519697167267,0.0,10,0.004734291752063532,-0.0015339807878856412,0.1963370144367218,78.00327744822783,0.08888889104127884,10.474113116583618,0,0,50,0.02367145876031766
5,0.007022974998108111,-0.00038349519697167267,0.0,0,0.0,-0.0015339807878856412,0.19706961512565613,78.29433440945165,0.08913309127092361,10.502888150206292,0,0,50,0.02367145876031766
6,0.008313676997204311,-0.0007669903939429012,-0.2792526803190927,9,0.004260862576857179,-0.0015339807878856412,0.19609281420707703,77.90625846115324,0.08962149173021317,10.560438217451642,0,0,50,0.02367145876031766
7,0.009682399999292102,-0.0007669903939429012,0.0,9,0.004260862576857179,-0.0015339807878856412,0.19682541489601135,78.19731542237705,0.08913309127092361,10.502888150206292,0,0,50,0.02367145876031766
8,0.011024305000319146,-0.0007669903939429012,0.0,17,0.008048295978508004,-0.0015339807878856412,0.19682541489601135,78.19731542237705,0.08986569195985794,10.589213251074316,0,0,50,0.02367145876031766
9,0.0123145219986327,-0.0007669903939429012,0.0,15,0.007101437628095298,-0.0015339807878856412,0.1963370144367218,78.00327744822783,0.08840049058198929,10.416563049338269,0,0,50,0.02367145876031766
10,0.013679559997399338,-0.001150485590914574,-0.2792526803190927,17,0.008048295978508004,-0.0015339807878856412,0.1963370144367218,78.00327744822783,0.08864469081163406,10.445338082960943,0,0,50,0.02367145876031766
11,0.015021939994767308,-0.001150485590914574,0.0,18,0.008521725153714358,-0.0015339807878856412,0.19609281420707703,77.90625846115324,0.08937729150056839,10.531663183828968,0,0,50,0.02367145876031766
12,0.01631674599775579,-0.001150485590914574,0.0,20,0.009468583504127064,-0.0015339807878856412,0.19658121466636658,78.10029643530244,0.08888889104127884,10.474113116583618,0,0,50,0.02367145876031766
13,0.017649859000812285,-0.001150485590914574,0.0,20,0.009468583504127064,-0.0015339807878856412,0.1963370144367218,78.00327744822783,0.08864469081163406,10.445338082960943,0,0,50,0.02367145876031766
14,0.018933004001155496,0.0,0.5934119456780721,26,0.012309158555365183,-0.0015339807878856412,0.19658121466636658,78.10029643530244,0.08913309127092361,10.502888150206292,0,0,50,0.02367145876031766
15,0.020159890998911578,0.0011504855909141298,0.9075712110370514,23,0.010888871029746124,-0.0015339807878856412,0.19609281420707703,77.90625846115324,0.08888889104127884,10.474113116583618,0,0,50,0.02367145876031766
16,0.022051831998396665,0.0034514567727423895,1.6406094968746698,27,0.012782587730571537,-0.0015339807878856412,0.19560441374778748,77.71222048700403,0.08888889104127884,10.474113116583618,0,0,50,0.02367145876031766
17,0.023216645000502467,0.008053399136399353,2.478367537831948,21,0.009942012679333418,-0.0015339807878856412,0.19658121466636658,78.10029643530244,0.08888889104127884,10.474113116583618,0,0,50,0.02367145876031766
18,0.02436320299602812,0.011888351106113415,3.1066860685499065,24,0.011362300204952477,-0.0015339807878856412,0.1953602135181427,77.61520149992943,0.08888889104127884,10.474113116583618,0,0,50,0.02367145876031766
19,0.025477163995674346,0.01687378866674205,4.049163864626845,36,0.017043450307428716,-0.0015339807878856412,0.19511601328849792,77.51818251285482,0.08840049058198929,10.416563049338269,0,0,50,0.02367145876031766
20,0.026596704999974463,0.023009711818284373,4.956735075663896,23,0.010888871029746124,-0.0015339807878856412,0.19511601328849792,77.51818251285482,0.08913309127092361,10.502888150206292,0,0,50,0.02367145876031766
21,0.027723357001377735,0.029912625363769596,6.073745796940266,27,0.012782587730571537,-0.0015339807878856412,0.1943834125995636,77.22712555163102,0.08840049058198929,10.416563049338269,0,0,50,0.02367145876031766
22,0.02883322799607413,0.038733014894112294,7.278022980816354,23,0.010888871029746124,-0.0015339807878856412,0.19389501214027405,77.03308757748181,0.08888889104127884,10.474113116583618,0,0,50,0.02367145876031766
23,0.029972584001370706,0.04870389001536912,8.377580409572781,29,0.013729446080984243,-0.0015339807878856412,0.19316241145133972,76.742030616258,0.08815629035234451,10.387788015715593,0,0,50,0.02367145876031766
24,0.03109362100076396,0.06020874592451131,9.791297103688189,25,0.01183572938015883,-0.0015339807878856412,0.1934066116809845,76.83904960333261,0.08864469081163406,10.445338082960943,0,0,50,0.02367145876031766
25,0.032212735000939574,0.0724805922275964,10.629055144645466,27,0.012782587730571537,-0.0015339807878856412,0.19389501214027405,77.03308757748181,0.08888889104127884,10.474113116583618,0,0,50,0.02367145876031766
26,0.0333282319988939,0.08513593372765271,11.082840750163992,23,0.010888871029746124,-0.0015339807878856412,0.19365081191062927,76.93606859040722,0.08840049058198929,10.416563049338269,0,0,50,0.02367145876031766
27,0.03448478399513988,0.09779127522770947,11.397000015522972,28,0.013256016905777889,-0.0015339807878856412,0.19389501214027405,77.03308757748181,0.08888889104127884,10.474113116583618,0,0,50,0.02367145876031766
28,0.03561165899736807,0.11044661672776579,11.274826967883369,29,0.013729446080984243,-0.0015339807878856412,0.1934066116809845,76.83904960333261,0.08888889104127884,10.474113116583618,0,0,50,0.02367145876031766
29,0.03671876299631549,0.12310195822782255,11.187560505283653,26,0.012309158555365183,-0.0015339807878856412,0.19365081191062927,76.93606859040722,0.08962149173021317,10.560438217451642,0,0,50,0.02367145876031766
30,0.037864491998334415,0.1349903093339364,10.768681484805013,29,0.013729446080984243,-0.0015339807878856412,0.19365081191062927,76.93606859040722,0.08840049058198929,10.416563049338269,0,0,50,0.02367145876031766
31,0.038994593000097666,0.1464951652430786,10.314895879286487,31,0.014676304431396949,-0.0015339807878856412,0.19413921236991882,77.13010656455641,0.08815629035234451,10.387788015715593,0,0,50,0.02367145876031766
32,0.04011184499540832,0.15800002115222078,10.22762941668677,36,0.017043450307428716,-0.0015339807878856412,0.19413921236991882,77.13010656455641,0.08840049058198929,10.416563049338269,0,0,50,0.02367145876031766
33,0.04121793300146237,0.16988837225833464,10.402162341886203,30,0.014202875256190597,-0.0015339807878856412,0.19560441374778748,77.71222048700403,0.08864469081163406,10.445338082960943,0,0,50,0.02367145876031766
34,0.04234454799734522,0.18331070415233386,11.205013797803595,23,0.010888871029746124,-0.0015339807878856412,0.19487181305885315,77.42116352578023,0.08840049058198929,10.416563049338269,0,0,50,0.02367145876031766
35,0.0434725469967816,0.19826701683421888,12.75835683207855,32,0.015149733606603303,-0.0015339807878856412,0.19560441374778748,77.71222048700403,0.08913309127092361,10.502888150206292,0,0,50,0.02367145876031766
36,0.044650625000940636,0.21514080550096093,14.398966328953218,33,0.015623162781809656,-0.0015339807878856412,0.19584861397743225,77.80923947407864,0.08864469081163406,10.445338082960943,0,0,50,0.02367145876031766
37,0.04573086700111162,0.23239808936467465,15.25417766243044,35,0.016570021132222362,-0.0015339807878856412,0.19584861397743225,77.80923947407864,0.08888889104127884,10.474113116583618,0,0,50,0.02367145876031766
38,0.04685702300048433,0.25080585881930206,16.19665545850738,32,0.015149733606603303,-0.0015339807878856412,0.19682541489601135,78.19731542237705,0.08791209012269974,10.359012982092919,0,0,50,0.02367145876031766
39,0.04797130999941146,0.26883013307695824,16.074482410867777,34,0.01609659195701601,-0.0015339807878856412,0.1973138153553009,78.39135339652626,0.08962149173021317,10.560438217451642,0,0,50,0.02367145876031766
40,0.04909666399908019,0.2857039217437003,15.428710587629872,38,0.01799030865784142,-0.0015339807878856412,0.19706961512565613,78.29433440945165,0.08840049058198929,10.416563049338269,0,0,50,0.02367145876031766
41,0.0502141139950254,0.3021942152134711,14.782938764391972,30,0.014202875256190597,-0.0015339807878856412,0.1973138153553009,78.39135339652626,0.08840049058198929,10.416563049338269,0,0,50,0.02367145876031766
42,0.051350738998735324,0.31830101348627027,14.29424657383356,41,0.01941059618346048,-0.0015339807878856412,0.1973138153553009,78.39135339652626,0.08913309127092361,10.502888150206292,0,0,50,0.02367145876031766
43,0.05245912799728103,0.3347913069560411,14.468779499032992,29,0.013729446080984243,-0.0015339807878856412,0.1973138153553009,78.39135339652626,0.08864469081163406,10.445338082960943,0,0,50,0.02367145876031766
44,0.0536537829975714,0.35243208601672604,15.289084247470328,44,0.02083088370907954,-0.0015339807878856412,0.19804641604423523,78.68241035775006,0.08864469081163406,10.445338082960943,0,0,50,0.02367145876031766
45,0.05486354699678486,0.37314082665318216,16.283921921107094,35,0.016570021132222362,-0.0015339807878856412,0.19780221581459045,78.58539137067545,0.08840049058198929,10.416563049338269,0,0,50,0.02367145876031766
46,0.05612962199666072,0.3953835480775236,17.505652397503127,36,0.017043450307428716,-0.0015339807878856412,0.19853481650352478,78.87644833189927,0.08840049058198929,10.416563049338269,0,0,50,0.02367145876031766
47,0.057398207994992845,0.4187767550927797,18.37831702350029,46,0.021777742059492247,-0.0015339807878856412,0.1992674171924591,79.16750529312307,0.08815629035234451,10.387788015715593,0,0,50,0.02367145876031766
48,0.05887722299667075,0.4483058852595785,19.7920337176157,27,0.012782587730571537,-0.0015339807878856412,0.2002442181110382,79.55558124142148,0.08815629035234451,10.387788015715593,0,0,50,0.02367145876031766
49,0.06016150499635842,0.47361656825969156,20.036379812894904,40,0.018937167008254128,-0.0015339807878856412,0.20048841834068298,79.65260022849608,0.08864469081163406,10.445338082960943,0,0,50,0.02367145876031766
50,0.061700804995780345,0.5019952128355758,19.373154697137057,25,0.01183572938015883,-0.0015339807878856412,0.20195361971855164,80.2347141509437,0.08791209012269974,10.359012982092919,0,0,50,0.02367145876031766
51,0.06308752499899128,0.5257719150478035,17.278759594743864,22,0.01041544185453977,-0.0015339807878856412,0.2021978199481964,80.33173313801831,0.08888889104127884,10.474113116583618,0,0,50,0.02367145876031766
52,0.06446414200036088,0.5495486172600308,17.174039839624204,20,0.009468583504127064,-0.0015339807878856412,0.20415142178535461,81.10788503461512,0.08913309127092361,10.502888150206292,0,0,50,0.02367145876031766
53,0.06634049699641764,0.5875146417602002,21.519909677090084,19,0.00899515432892071,-0.0015339807878856412,0.20586082339286804,81.78701794413733,0.08840049058198929,10.416563049338269,0,0,50,0.02367145876031766
54,0.06794881699897815,0.62816513263917,24.88839513343914,53,0.02509174628593672,-0.0015339807878856412,0.20805862545967102,82.66018882780877,0.08840049058198929,10.416563049338269,0,0,50,0.02367145876031766
55,0.06936308299918892,0.6615292147756824,23.003439541285264,20,0.009468583504127064,-0.0015339807878856412,0.21001222729682922,83.43634072440558,0.08937729150056839,10.531663183828968,0,0,50,0.02367145876031766
56,0.07093453899869928,0.6922088305333953,18.832102629018816,36,0.017043450307428716,-0.0015339807878856412,0.2122100293636322,84.309511608077,0.08815629035234451,10.387788015715593,0,0,50,0.02367145876031766
57,0.07270386099844472,0.7274903886547652,21.17084382669122,41,0.01941059618346048,-0.0015339807878856412,0.21562883257865906,85.66777742712144,0.08864469081163406,10.445338082960943,0,0,50,0.02367145876031766
58,0.07456512199860299,0.7784952498519626,27.366762671271086,32,0.015149733606603303,-0.0015339807878856412,0.21978023648262024,87.31710020738969,0.08888889104127884,10.474113116583618,0,0,50,0.02367145876031766
59,0.07644303199776914,0.8256651590794464,25.150194521238287,30,0.014202875256190597,-0.0015339807878856412,0.22197803854942322,88.1902710910611,0.08937729150056839,10.531663183828968,0,0,50,0.02367145876031766
60,0.07831286700093187,0.870534097125101,23.823744289722598,37,0.01751687948263507,-0.0015339807878856412,0.22393164038658142,88.96642298765792,0.08864469081163406,10.445338082960943,0,0,50,0.02367145876031766
61,0.08018787099717883,0.9211554631253271,26.790804018112958,35,0.016570021132222362,-0.0015339807878856412,0.2300366461277008,91.39189766452299,0.08864469081163406,10.445338082960943,0,0,50,0.02367145876031766
62,0.08190867999655893,0.9736943051104103,29.688050576423546,27,0.012782587730571537,-0.0015339807878856412,0.23589745163917542,93.72035335431346,0.08888889104127884,10.474113116583618,0,0,50,0.02367145876031766
63,0.08366320400091354,1.027383632686408,30.97959422289935,37,0.01751687948263507,-0.0015339807878856412,0.2410256564617157,95.7577520828801,0.08815629035234451,10.387788015715593,0,0,50,0.02367145876031766
64,0.08514639100030763,1.0699515995502344,26.284658535034602,37,0.01751687948263507,-0.0015339807878856412,0.24664226174354553,97.98918878559597,0.08840049058198929,10.416563049338269,0,0,50,0.02367145876031766
65,0.08687208999617724,1.1171215087777178,28.34414705238791,41,0.01941059618346048,-0.0015339807878856412,0.25030526518821716,99.44447359171501,0.08937729150056839,10.531663183828968,0,0,50,0.02367145876031766
66,0.08851241299998946,1.1700438459597726,32.81218993749339,41,0.01941059618346048,-0.0015339807878856412,0.25445666909217834,101.09379637198325,0.08986569195985794,10.589213251074316,0,0,50,0.02367145876031766
67,0.09013694899476832,1.2122283176266277,26.616271092913525,45,0.021304312884285893,-0.0015339807878856412,0.25958487391471863,103.1311951005499,0.08864469081163406,10.445338082960943,0,0,50,0.02367145876031766
68,0.09175178299483377,1.2532623037025687,24.67895562319982,46,0.021777742059492247,-0.0015339807878856412,0.26324787735939026,104.58647990666894,0.08937729150056839,10.531663183828968,0,0,50,0.02367145876031766
69,0.0933507070003543,1.305034155293709,31.747539093776854,32,0.015149733606603303,-0.0015339807878856412,0.26837608218193054,106.6238786352356,0.08937729150056839,10.531663183828968,0,0,50,0.02367145876031766
70,0.09498317899851827,1.3522040645211924,29.49606435870417,38,0.01799030865784142,-0.0015339807878856412,0.2744810879230499,109.04935331210066,0.08888889104127884,10.474113116583618,0,0,50,0.02367145876031766
71,0.09659916199598229,1.395539021778962,26.52900463031381,47,0.0222511712346986,-0.0015339807878856412,0.27838829159736633,110.6016571052943,0.08913309127092361,10.502888150206292,0,0,50,0.02367145876031766
72,0.09822043000167469,1.4423254358094737,28.413960222467686,45,0.021304312884285893,-0.0015339807878856412,0.2827838957309723,112.34799887263715,0.08986569195985794,10.589213251074316,0,0,50,0.02367145876031766
73,0.09981154200067976,1.4925633066127286,30.77015471266003,34,0.01609659195701601,-0.0015339807878856412,0.2886447012424469,114.67645456242761,0.08937729150056839,10.531663183828968,0,0,50,0.02367145876031766
74,0.10137570100050652,1.5381992350523266,30.700341542580258,46,0.021777742059492247,-0.0015339807878856412,0.29206350445747375,116.03472038147204,0.08888889104127884,10.474113116583618,0,0,50,0.02367145876031766
75,0.10273749499901896,1.574247783567639,26.982790235832336,28,0.013256016905777889,-0.0015339807878856412,0.29523810744285583,117.29596721344187,0.08937729150056839,10.531663183828968,0,0,50,0.02367145876031766
76,0.10404161799669964,1.6118303128708371,26.37192499763432,35,0.016570021132222362,-0.0015339807878856412,0.2986569106578827,118.65423303248632,0.08937729150056839,10.531663183828968,0,0,50,0.02367145876031766
77,0.10524019799777307,1.6540147845376922,32.20132469929538,33,0.015623162781809656,-0.0015339807878856412,0.2976801097393036,118.2661570841879,0.08962149173021317,10.560438217451642,0,0,50,0.02367145876031766
78,0.10649217500031227,1.6958157610075761,34.45279943436807,41,0.01941059618346048,-0.0015339807878856412,0.21098902821540833,83.82441667270399,0.08449328690767288,9.95616251137547,0,0,50,0.02367145876031766
79,0.10778305599524174,1.7314808143259173,29.670597283903604,36,0.017043450307428716,-0.0015339807878856412,0.2012210190296173,79.94365718971989,0.09035409241914749,10.646763318319666,0,0,50,0.02367145876031766
80,0.10917828299716348,1.7759662571746007,30.281462522101616,34,0.01609659195701601,-0.0015339807878856412,0.20415142178535461,81.10788503461512,0.08840049058198929,10.416563049338269,0,0,50,0.02367145876031766
81,0.11056091999489581,1.8380924790839694,43.16199240181977,36,0.017043450307428716,-0.0015339807878856412,0.20781442523002625,82.56316984073416,0.08473748713731766,9.984937544998147,0,0,50,0.02367145876031766
82,0.11174348899658071,1.8852623883114532,40.85815778918725,35,0.016570021132222362,-0.0015339807878856412,0.1963370144367218,78.00327744822783,0.08791209012269974,10.359012982092919,0,0,50,0.02367145876031766
83,0.11304084600124042,1.9308983167510503,35.97123588360313,36,0.017043450307428716,-0.0015339807878856412,0.19902321696281433,79.07048630604847,0.08888889104127884,10.474113116583618,0,0,50,0.02367145876031766
84,0.11442863199772546,1.9857381299179622,39.374627924992076,35,0.016570021132222362,-0.0015339807878856412,0.2021978199481964,80.33173313801831,0.08815629035234451,10.387788015715593,0,0,50,0.02367145876031766
85,0.11583332999725826,2.0455633806455022,43.109632524259936,36,0.017043450307428716,-0.0015339807878856412,0.20000001788139343,79.45856225434687,0.08766788989305496,10.330237948470243,0,0,50,0.02367145876031766
86,0.11713634299667319,2.096951737039671,38.885935734433666,37,0.01751687948263507,-0.0015339807878856412,0.19951161742210388,79.26452428019768,0.08840049058198929,10.416563049338269,0,0,50,0.02367145876031766
87,0.11839546799456002,2.150257569418697,39.112828537192925,45,0.021304312884285893,-0.0015339807878856412,0.20463982224464417,81.30192300876433,0.08791209012269974,10.359012982092919,0,0,50,0.02367145876031766
88,0.11986053199507296,2.2158352481008086,49.00884539600077,32,0.015149733606603303,-0.0015339807878856412,0.210256427526474,83.53335971148019,0.08766788989305496,10.330237948470243,0,0,50,0.02367145876031766
89,0.12118637399544241,2.2691410804798346,39.13028182971287,44,0.02083088370907954,-0.0015339807878856412,0.21172162890434265,84.1154736339278,0.08644688874483109,10.18636278035687,0,0,50,0.02367145876031766
90,0.1223493139987113,2.3335682735710312,47.71730174952497,41,0.01941059618346048,-0.0015339807878856412,0.21855923533439636,86.83200527201667,0.08815629035234451,10.387788015715593,0,0,50,0.02367145876031766
91,0.12375750899809645,2.392243038707657,49.60225734167884,36,0.017043450307428716,-0.0015339807878856412,0.22173383831977844,88.0932521039865,0.08888889104127884,10.474113116583618,0,0,50,0.02367145876031766
92,0.12517403200035915,2.460505183768568,44.69788214357478,17,0.008048295978508004,-0.0015339807878856412,0.22564104199409485,89.64555589718015,0.08815629035234451,10.387788015715593,0,0,50,0.02367145876031766
93,0.1263981000010972,2.5260828624506795,50.47492196767601,21,0.009942012679333418,-0.0015339807878856412,0.23125764727592468,91.876992599896,0.08840049058198929,10.416563049338269,0,0,50,0.02367145876031766
