,Time [sec],Motor angle [rad],Motor speed [rad/sec],Motor current [units],Linear encoder [mm],Joint angle [rad],Force sensor on motor [units],Force sensor on handle [units],Desired motor angle [rad],Desired motor speed [rad/sec]
0,9.820000286708819e-06,0.0,0.0,-61,0.19402777777777777,0.0046019423636569235,0.19584861397743225,0.0,0,0.0
1,0.0012936289999743167,0.0,0.0,-1,0.19402777777777777,0.0046019423636569235,0.19560441374778748,0.0,0,78.95683520721191
2,0.0024167400001715578,0.0,0.0,16,0.19402777777777777,0.0046019423636569235,0.19560441374778748,0.0,0,78.9568091268323
3,0.0035318919999554055,0.0003834951969714506,0.08726646259971647,58,0.19402777777777777,0.0046019423636569235,0.19560441374778748,0.0,0,78.95674417982413
4,0.004662093000206369,0.0023009711818284817,1.239183768915974,32,0.19402777777777777,0.0046019423636569235,0.19584861397743225,0.0,0,78.95664079176504
5,0.005783740999959264,0.005368932757599865,2.251474735072685,68,0.19402777777777777,0.0046019423636569235,0.1973138153553009,0.0,0,78.95649645736991
6,0.006959665000067616,0.011504855909142409,4.520402762665314,40,0.19402777777777777,0.0046019423636569235,0.19658121466636658,0.0,0,78.95631384996227
7,0.008296610000343208,0.022626216621313366,7.3303828583761845,50,0.19402777777777777,0.0046019423636569235,0.1973138153553009,0.0,0,78.95608029823828
8,0.009562800000367133,0.036432043712284035,10.17526953912694,48,0.19402777777777777,0.0046019423636569235,0.19682541489601135,0.0,0,78.95576240605592
9,0.010793484000259923,0.054839813166911666,13.648474750595657,40,0.19402777777777777,0.0046019423636569235,0.19706961512565613,0.0,0,78.95540996769712
10,0.01255984499994156,0.08782040010645309,18.640116411299438,66,0.19402777777777777,0.0046019423636569235,0.19755801558494568,0.0,0,78.95501952117564
11,0.013794646999940596,0.11619904468233733,21.93878869756872,50,0.19402777777777777,0.0046019423636569235,0.1973138153553009,0.0,0,78.95437662059221
12,0.014917374000106065,0.1430437084703362,23.50958502436362,47,0.19402777777777777,0.0046019423636569235,0.19706961512565613,0.0,0,78.95386943550645
13,0.016164132000085374,0.17372332422804893,24.172810140121463,68,0.19402777777777777,0.0046019423636569235,0.1992674171924591,0.0,0,78.95336703333808
14,0.01729215800014572,0.2090048823494186,28.099800957108705,39,0.19402777777777777,0.0046019423636569235,0.20000001788139343,0.0,0,78.95276308918916
15,0.018416736000290257,0.25617479157690215,38.11799086355616,31,0.19402777777777777,0.0046019423636569235,0.2012210190296173,0.0,0,78.9521749117558
16,0.019544421000318835,0.29989324403164286,41.329396687225724,36,0.19402777777777777,0.0046019423636569235,0.2031746208667755,0.0,0,78.95154905299276
17,0.020666747000177565,0.335558297349984,34.05137370640937,68,0.19402777777777777,0.0046019423636569235,0.20390722155570984,0.0,0,78.95088188313966
18,0.021796980000090116,0.3838786921683819,36.80899392456041,58,0.19402777777777777,0.0046019423636569235,0.20512822270393372,0.0,0,78.95017852968452
19,0.02292566000005536,0.44370394289592174,50.59709501531562,24,0.19402777777777777,0.0046019423636569235,0.20708182454109192,0.0,0,78.94943054505218
20,0.024164100000234612,0.49892725125980486,47.211156266446615,64,0.19402777777777777,0.0046019423636569235,0.20854702591896057,0.0,0,78.94864385540039
21,0.025293388000136474,0.5526165788358023,44.767695313654556,66,0.19402777777777777,0.0046019423636569235,0.2112332284450531,0.0,0,78.94773497849309
22,0.026404651000120793,0.613975810351228,52.290064389750114,49,0.19402777777777777,0.0046019423636569235,0.21489623188972473,0.0,0,78.94686453865894
23,0.027542885999991995,0.6768690226545393,56.51376117957639,57,0.19402777777777777,0.0046019423636569235,0.21660563349723816,0.0,0,78.94596919183881
24,0.028664978000051633,0.7340098070032793,51.46975964131278,71,0.19402777777777777,0.0046019423636569235,0.21978023648262024,0.0,0,78.94501221322992
25,0.02978804200029117,0.8061069040339045,59.16666164260777,60,0.19402777777777777,0.0046019423636569235,0.22368744015693665,0.0,0,78.94402928356536
26,0.030900927999937267,0.868233125943273,60.23131248632431,64,0.19402777777777777,0.0046019423636569235,0.22564104199409485,0.0,0,78.9430062108191
27,0.03202515000020867,0.9437816797466408,59.00958200992828,87,0.19402777777777777,0.0046019423636569235,0.22857144474983215,0.0,0,78.94195363449258
28,0.03315297200015266,1.01702926236818,69.51646410693415,53,0.19402777777777777,0.0046019423636569235,0.23174604773521423,0.0,0,78.94085114636658
29,0.03427406000037081,1.0918108257776051,63.86159733047252,81,0.19402777777777777,0.0046019423636569235,0.23540905117988586,0.0,0,78.93970555028302
30,0.035399362000134715,1.1796312258840582,74.64773210779748,59,0.19402777777777777,0.0046019423636569235,0.23980465531349182,0.0,0,78.93852750839662
31,0.03655252800035669,1.2613157028389685,75.39822368615503,49,0.19402777777777777,0.0046019423636569235,0.24322345852851868,0.0,0,78.93730564960848
32,0.0378415740001401,1.363708920430335,80.00589291142006,51,0.19402777777777777,0.0046019423636569235,0.2500610649585724,0.0,0,78.93601259604782
33,0.039101364000089234,1.4545972821125592,71.82029871956667,66,0.19402777777777777,0.0046019423636569235,0.2527472674846649,0.0,0,78.93451812727568
34,0.04047382099997776,1.5661943844312398,82.92059276225059,45,0.19402777777777777,0.0046019423636569235,0.2571428716182709,0.0,0,78.9330075460241
35,0.04183632900003431,1.6835439147044913,82.08283472129332,52,0.19402777777777777,0.0046019423636569235,0.26153847575187683,0.0,0,78.93130558101885
36,0.04317249099995024,1.7928400458413432,81.55923594569502,34,0.19402777777777777,0.0046019423636569235,0.2630036771297455,0.0,0,78.92955789459018
37,0.04442353900003582,1.904820643356995,89.97172294030769,10,0.19402777777777777,0.0046019423636569235,0.26617828011512756,0.0,0,78.92778782256434
38,0.0455160030001025,2.0033789089786476,80.75638448977763,51,0.19402777777777777,0.0046019423636569235,0.26642248034477234,0.0,0,78.92608007748665
39,0.0466526730001533,2.0938837754639,89.01179185171081,-6,0.19402777777777777,0.0046019423636569235,0.26935288310050964,0.0,0,78.92454892134009
40,0.04791566600033548,2.1920585458885813,76.61995416255107,35,0.19402777777777777,0.0046019423636569235,0.2686202824115753,0.0,0,78.92291633363413
41,0.04916100200034634,2.2852478787526342,78.15584390430608,23,0.19402777777777777,0.0046019423636569235,0.2720390856266022,0.0,0,78.92105509406804
42,0.05028274500000407,2.379587697207601,77.24827269326903,46,0.19402777777777777,0.0046019423636569235,0.27326008677482605,0.0,0,78.91917121273993
43,0.051395184000284644,2.4651071261322253,79.63937376850126,24,0.19402777777777777,0.0046019423636569235,0.2739926874637604,0.0,0,78.91743293301735
44,0.05251999100028115,2.5671168485266205,86.88249016427773,24,0.19402777777777777,0.0046019423636569235,0.27521368861198425,0.0,0,78.9156703543726
45,0.05364766499997131,2.6599226861937018,83.49655141540873,26,0.19402777777777777,0.0046019423636569235,0.27521368861198425,0.0,0,78.91384897965682
46,0.05476710600032675,2.76538386536084,90.7396678111852,-10,0.19402777777777777,0.0046019423636569235,0.27643468976020813,0.0,0,78.91198339597196
47,0.055903939000018,2.859340188618835,86.76031711663812,19,0.19402777777777777,0.0046019423636569235,0.2757020890712738,0.0,0,78.9100922495297
48,0.05703576400037491,2.9529130166798594,86.39379797371932,1,0.19402777777777777,0.0046019423636569235,0.2747252881526947,0.0,0,78.90813176849866
49,0.05815483400010635,3.041500407180255,74.03686686959946,32,0.19402777777777777,0.0046019423636569235,0.27326008677482605,0.0,0,78.90613992935985
50,0.05927313600022899,3.125869350513965,80.59930485709813,6,0.19402777777777777,0.0046019423636569235,0.2717948853969574,0.0,0,78.90413130393549
51,0.060404888999983086,3.214456741014361,74.42083930503821,37,0.19402777777777777,0.0046019423636569235,0.26837608218193054,0.0,0,78.90208508732455
52,0.06166278000000602,3.3156994730148135,83.21729873508963,13,0.19402777777777777,0.0046019423636569235,0.26715508103370667,0.0,0,78.89997459776987
53,0.06291670700011309,3.425379099348637,82.10028801381326,25,0.19402777777777777,0.0046019423636569235,0.26349207758903503,0.0,0,78.89758207174269
54,0.06427046600038011,3.53774319206126,82.92059276225059,6,0.21166666666666667,0.0046019423636569235,0.26324787735939026,0.0,0,78.89514803362229
55,0.06539705300019705,3.640519904849598,91.54251926710259,-15,0.21166666666666667,0.0046019423636569235,0.26031747460365295,0.0,0,78.89246523198732
56,0.06653770599996278,3.7248888481833085,77.52752537358812,27,0.21166666666666667,0.0046019423636569235,0.25811967253685,0.0,0,78.89018911133151
57,0.06765819500014914,3.816544200259475,79.91862644882035,10,0.21166666666666667,0.0046019423636569235,0.2539682686328888,0.0,0,78.88784430012797
58,0.06876722000015434,3.895544210835586,73.39109504636156,29,0.21166666666666667,0.0046019423636569235,0.2510378658771515,0.0,0,78.88550148697064
59,0.07001522400014437,3.9971704380330095,81.7512221634144,26,0.21166666666666667,0.0046019423636569235,0.2478632628917694,0.0,0,78.88314414213909
60,0.07116236499996376,4.083073362154606,72.18681786248547,22,0.21166666666666667,0.0046019423636569235,0.24346765875816345,0.0,0,78.88044558034474
61,0.0723914190002688,4.181631627776258,82.83332629965088,7,0.21166666666666667,0.0046019423636569235,0.24078145623207092,0.0,0,78.87792233411729
62,0.07351378000021214,4.270219018276654,75.97418233931316,28,0.21166666666666667,0.0046019423636569235,0.23467645049095154,0.0,0,78.8751734410646
63,0.0748875730000691,4.387952043746877,86.77777040915807,4,0.21166666666666667,0.0046019423636569235,0.23174604773521423,0.0,0,78.87262208714395
64,0.07601722300023539,4.479223900626073,79.06341511534313,21,0.21166666666666667,0.0046019423636569235,0.22832724452018738,0.0,0,78.86944578886525
65,0.07713301900002989,4.5601413871870395,79.58701389094142,28,0.21166666666666667,0.0046019423636569235,0.22637364268302917,0.0,0,78.86678993778389
66,0.07825814300031197,4.647961787293493,72.2391777400453,37,0.21166666666666667,0.0046019423636569235,0.2231990396976471,0.0,0,78.86412765379721
67,0.0795072450000589,4.739233644172689,75.60766319639436,17,0.21166666666666667,0.0046019423636569235,0.22075703740119934,0.0,0,78.86140386358288
68,0.08062697700006538,4.832422977036741,78.17329719682603,47,0.21166666666666667,0.0046019423636569235,0.21733823418617249,0.0,0,78.85833377242248
69,0.08175810900002034,4.916024929976508,79.70918693858103,16,0.21166666666666667,0.0046019423636569235,0.21391943097114563,0.0,0,78.85554036358232
70,0.08288165500016476,5.016500671583018,81.82103533349417,25,0.21166666666666667,0.0046019423636569235,0.21098902821540833,0.0,0,78.85267888499332
71,0.08401280700036295,5.098952138931871,79.42993425826194,13,0.21166666666666667,0.0046019423636569235,0.20488402247428894,0.0,0,78.8497971675404
72,0.0852740220002488,5.209015260462666,87.75515479027489,13,0.21166666666666667,0.0046019423636569235,0.20170941948890686,0.0,0,78.84685624655448
73,0.08652186700010134,5.301437602932776,73.61798784912082,40,0.21166666666666667,0.0046019423636569235,0.19853481650352478,0.0,0,78.84353021005195
74,0.08781326300004366,5.398845382963515,78.87142889762376,25,0.21166666666666667,0.0046019423636569235,0.19560441374778748,0.0,0,78.84019070573265
75,0.08900564100031261,5.494335687009396,72.44861725028461,52,0.21166666666666667,0.0046019423636569235,0.19291821122169495,0.0,0,78.83668361771775
76,0.0903797510000004,5.5817725919188765,82.6762466669714,22,0.21166666666666667,0.0046019423636569235,0.19169721007347107,0.0,0,78.83339934859725
77,0.09150491800028249,5.701423093373957,83.75835080320788,27,0.21166666666666667,0.0046019423636569235,0.18998780846595764,0.0,0,78.82955964123406
78,0.0926432230003229,5.792311455056181,82.97295263981043,5,0.21166666666666667,0.0046019423636569235,0.18901100754737854,0.0,0,78.826371803656
79,0.09376731500015012,5.895088167844519,87.38863564735608,0,0.21166666666666667,0.0046019423636569235,0.19023200869560242,0.0,0,78.82310665342959
80,0.09487577600020813,5.986743519920686,86.96975662687744,-3,0.21166666666666667,0.0046019423636569235,0.19267401099205017,0.0,0,78.81984270332073
81,0.09601379700006873,6.082617319163539,84.38666933392584,9,0.21166666666666667,0.0046019423636569235,0.19462761282920837,0.0,0,78.8165856375123
82,0.09714256200004456,6.163918300921478,72.2391777400453,28,0.21166666666666667,0.0046019423636569235,0.19706961512565613,0.0,0,78.8132019394569
83,0.09825647800016668,6.249437729846102,78.94124206770353,21,0.21166666666666667,0.0046019423636569235,0.19902321696281433,0.0,0,78.8098059569562
84,0.09940004899999622,6.329971721210098,70.1447826376521,39,0.21166666666666667,0.0046019423636569235,0.20073261857032776,0.0,0,78.80641578645985
85,0.10051001400006498,6.420476587695351,78.74925584998415,19,0.21166666666666667,0.0046019423636569235,0.2053724229335785,0.0,0,78.80289520315776
86,0.10162327000034566,6.501010579059347,73.21656212116213,42,0.21166666666666667,0.0046019423636569235,0.20879122614860535,0.0,0,78.79943917023998
87,0.10275853300026938,6.5980348638931146,83.5663645854885,11,0.21166666666666667,0.0046019423636569235,0.210256427526474,0.0,0,78.79593439300656
88,0.10387348099993687,6.6854717688025955,75.97418233931316,27,0.21166666666666667,0.0046019423636569235,0.21196582913398743,0.0,0,78.7923206295629
89,0.10500539500026207,6.783646539227277,89.02924514423076,-8,0.21166666666666667,0.0046019423636569235,0.21587303280830383,0.0,0,78.78873251233676
90,0.10613428600026964,6.866481501773102,74.99679795819634,38,0.21166666666666667,0.0046019423636569235,0.21758243441581726,0.0,0,78.7850502418787
91,0.10725933899993834,6.956219377864412,78.69689597242431,32,0.21166666666666667,0.0046019423636569235,0.22197803854942322,0.0,0,78.78133811496033
92,0.10842340599992895,7.034452398046579,71.87265859712649,50,0.21166666666666667,0.0046019423636569235,0.2241758406162262,0.0,0,78.7775991746682
93,0.10961967699995512,7.1337776540621745,80.47713180945854,38,0.21166666666666667,0.0046019423636569235,0.2271062433719635,0.0,0,78.77368914126802
94,0.11073927000006734,7.217379607001941,70.24950239277176,55,0.21166666666666667,0.0046019423636569235,0.23150184750556946,0.0,0,78.76962703145303
95,0.11235961700003827,7.305200007108395,81.94320838113377,20,0.21166666666666667,0.0046019423636569235,0.23663005232810974,0.0,0,78.7657849782008
96,0.11437616100010928,7.476238864957644,81.94320838113377,47,0.21166666666666667,0.0046019423636569235,0.24053725600242615,0.0,0,78.76015548553791
97,0.11647678400004224,7.666068987458492,82.71115325201127,11,0.21166666666666667,0.0046019423636569235,0.2468864619731903,0.0,0,78.7530354873866
98,0.11782943100024568,7.76616123386803,69.81317007977319,59,0.21166666666666667,0.0046019423636569235,0.2490842640399933,0.0,0,78.7454841792475
99,0.11972840499993254,7.898083581626195,74.61282552275759,46,0.22930555555555554,0.0046019423636569235,0.2520146667957306,0.0,0,78.74054908469131
100,0.12107848000005106,8.02156903505099,83.54891129296855,26,0.22930555555555554,0.0046019423636569235,0.2561660706996918,0.0,0,78.73352475969021
101,0.12242106200028502,8.137384584536356,79.39502767322205,50,0.22930555555555554,0.0046019423636569235,0.2578754723072052,0.0,0,78.72846264571976
102,0.12363778500002809,8.230573917400408,81.17526351025627,3,0.22930555555555554,0.0046019423636569235,0.26056167483329773,0.0,0,78.72337244658087
103,0.12491541300005338,8.342171019719089,87.80751466783472,-5,0.22930555555555554,0.0046019423636569235,0.2649572789669037,0.0,0,78.71871103388861
104,0.12639778900029341,8.442646761325598,72.8849495632832,45,0.22930555555555554,0.0046019423636569235,0.26617828011512756,0.0,0,78.71376676808629
105,0.12773547799997687,8.546190464507879,77.14355293814937,32,0.22930555555555554,0.0046019423636569235,0.2666666805744171,0.0,0,78.70796658305026
106,0.1290849500001059,8.652418634068958,72.95476273336297,51,0.22930555555555554,0.0046019423636569235,0.26715508103370667,0.0,0,78.70267391494478
107,0.1304940230002103,8.757879813236098,77.02137989050976,39,0.22930555555555554,0.0046019423636569235,0.26813188195228577,0.0,0,78.69727829171295
108,0.13188038700036486,8.87868080028209,88.7674457564316,12,0.22930555555555554,0.0046019423636569235,0.26813188195228577,0.0,0,78.6915839831944
109,0.13319806200024686,8.999481787328087,84.50884238156544,24,0.22930555555555554,0.0046019423636569235,0.267887681722641,0.0,0,78.68592124725728
110,0.1345463520001431,9.11721481279831,90.0589894029074,-16,0.22930555555555554,0.0046019423636569235,0.26617828011512756,0.0,0,78.68048373689672
111,0.1359584800002267,9.234180847874589,86.88249016427773,4,0.24694444444444444,0.005368932757599744,0.2669108808040619,0.0,0,78.6748640651359
112,0.1373560600000019,9.342709988617496,75.38077039363509,37,0.24694444444444444,0.005368932757599744,0.2666666805744171,0.0,0,78.66891778057756
113,0.1387586430000738,9.442802235027035,74.80481174047696,8,0.24694444444444444,0.005368932757599744,0.26446887850761414,0.0,0,78.66297177805188
114,0.1400211280001713,9.556700308527544,81.1927168027762,23,0.24694444444444444,0.005368932757599744,0.2639804780483246,0.0,0,78.65694350682881
115,0.14126748700027747,9.654108088558283,77.70205829878755,21,0.24694444444444444,0.005368932757599744,0.2630036771297455,0.0,0,78.65146513385233
116,0.1425696220003374,9.762637229301191,88.80235234147149,2,0.24694444444444444,0.005368932757599744,0.2617826759815216,0.0,0,78.6460081913421
117,0.1439487289999306,9.884205206741129,84.02015019100702,29,0.24694444444444444,0.005368932757599744,0.2586080729961395,0.0,0,78.64025552796447
118,0.14535968200016214,9.990049881105238,81.07054375513661,14,0.24694444444444444,0.005368932757599744,0.2556776702404022,0.0,0,78.6341054128032
119,0.14674455700014732,10.100496497833005,79.4997474283417,10,0.24694444444444444,0.005368932757599744,0.25054946541786194,0.0,0,78.627752177134
120,0.14808577500025422,10.200588744242543,71.20943348136865,14,0.24694444444444444,0.005368932757599744,0.24737486243247986,0.0,0,78.62145627201416
121,0.1494419570003629,10.30336545703088,79.1332282854229,18,0.24694444444444444,0.005368932757599744,0.24444445967674255,0.0,0,78.61530209706027
122,0.1508392340001592,10.41726353053139,79.62192047598131,24,0.24694444444444444,0.005368932757599744,0.24151405692100525,0.0,0,78.60902249230432
123,0.1520790780000425,10.510836358592414,76.5501409924713,15,0.24694444444444444,0.005368932757599744,0.2400488555431366,0.0,0,78.6024929046652
124,0.15344487300035325,10.62933637445658,83.75835080320788,11,0.24694444444444444,0.005368932757599744,0.2361416518688202,0.0,0,78.59664828412099
125,0.15487590400016416,10.737482020002517,79.46484084330183,10,0.26458333333333334,0.005368932757599744,0.234188050031662,0.0,0,78.59015471911036
126,0.15617813600010777,10.838341256805998,78.43509658462517,4,0.26458333333333334,0.005368932757599744,0.22881564497947693,0.0,0,78.58328890607955
127,0.15741928500028735,10.93153058967005,69.9004365423729,50,0.26458333333333334,0.005368932757599744,0.22588524222373962,0.0,0,78.57698583435032
128,0.15867968600014137,11.020501475367418,73.47836150896127,37,0.26458333333333334,0.005368932757599744,0.22271063923835754,0.0,0,78.57092945474494
129,0.16026814600036232,11.140918967216441,79.56956059842149,34,0.26458333333333334,0.005368932757599744,0.2183150351047516,0.0,0,78.56473023195585
130,0.16157256199994663,11.245613155989636,73.72270760424048,42,0.26458333333333334,0.005368932757599744,0.21489623188972473,0.0,0,78.55684728832135
131,0.16300364300013825,11.353375306338602,83.18239215004975,9,0.26458333333333334,0.005368932757599744,0.20903542637825012,0.0,0,78.55031543641078
132,0.16426530300032027,11.47264231259671,84.26449628628623,20,0.26458333333333334,0.005368932757599744,0.20561662316322327,0.0,0,78.54308861224142
133,0.1655642099999568,11.563530674278935,74.99679795819634,24,0.26458333333333334,0.005368932757599744,0.2021978199481964,0.0,0,78.53666467659265
