,Time [sec],Motor angle [rad],Motor speed [rad/sec],Motor current [units],Linear encoder [mm],Joint angle [rad],Force sensor on motor [units],Force sensor on handle [units],Desired motor angle [rad],Desired motor speed [rad/sec]
0,1.0689000191632658e-05,0.0,0.0,0,0.0,0.0,0.11086691915988922,0.0,0,0.0
1,0.0012862559997302014,0.0,0.0,1,0.0,0.0,0.11135531961917877,0.0,0,177.65287921560184
2,0.0025363209997522063,0.0011504855909141298,0.4537856055185257,19,0.0,0.0,0.11086691915988922,0.0,0,177.65282120240448
3,0.0037643979994754773,0.0023009711818284817,0.7504915783575618,23,0.0,0.0,0.11135531961917877,0.0,0,177.65265363454807
4,0.004882931999418361,0.004601942363656963,1.7627825445142729,25,0.0,0.0,0.11135531961917877,0.0,0,177.65238229230792
5,0.0060137809996376745,0.008436894333371026,2.8623399732707004,28,0.0,0.0,0.111111119389534,0.0,0,177.65204311040603
6,0.00713607099987712,0.013805827090970668,4.34586983746588,31,0.0,0.0,0.11135531961917877,0.0,0,177.65161099349285
7,0.008285426999464107,0.021475731030399015,6.056292504420323,31,0.0,0.0,0.11159951984882355,0.0,0,177.65109347400846
8,0.010056993999569386,0.039116510091083745,9.599310885968812,47,0.0,0.0,0.11135531961917877,0.0,0,177.65047191636398
9,0.011934742999983428,0.06634466907605407,14.259339988793672,54,0.0,0.0,0.1120879203081131,0.0,0,177.649332417741
10,0.013156437999896298,0.08820389530342432,16.824973989225338,51,0.0,0.0,0.11184372007846832,0.0,0,177.64788432764283
11,0.014408863999960886,0.11121360712170891,18.622663118779496,52,0.0,0.0,0.1130647212266922,0.0,0,177.64680939467422
12,0.015642387999832863,0.13345632854605083,18.11651763570114,52,0.0,0.0,0.11330892145633698,0.0,0,177.64559876481326
13,0.016880637000213028,0.15991749713707804,19.669860669976092,58,0.0,0.0,0.11282052099704742,0.0,0,177.64429887750558
14,0.01815234999958193,0.19558255045541917,26.284658535034602,49,0.0,0.0,0.11379732191562653,0.0,0,177.64288668681831
15,0.019396173999666644,0.2377670221222743,33.021629447732714,39,0.0,0.0,0.11648352444171906,0.0,0,177.6413244045961
16,0.02050692699958745,0.27419906583455833,33.283428835531865,54,0.0,0.0,0.11672772467136383,0.0,0,177.6396866692932
17,0.021656738999809022,0.31063110954684237,31.922072018976287,64,0.0,0.0,0.11746032536029816,0.0,0,177.6381324412165
18,0.022779529999752413,0.3535825716076402,35.552356863124494,60,0.0,0.0,0.11868132650852203,0.0,0,177.6364324194453
19,0.023996817999432096,0.4107233559563803,43.703044469938014,39,0.0,0.0,0.12014652788639069,0.0,0,177.63468287739096
20,0.02511674499965011,0.46517967392632076,48.55505979048225,36,0.0,0.0,0.12161172926425934,0.0,0,177.63268620872572
21,0.026249763000123494,0.5135000687447184,44.889868361294155,62,0.0,0.0,0.12234432995319366,0.0,0,177.63075745886704
22,0.027357605999895895,0.5817622138056293,51.88863866179142,56,0.0,0.0,0.1260073333978653,0.0,0,177.62871666103075
23,0.028501236000010977,0.6500243588665404,63.91395720803235,35,0.0,0.0,0.12747253477573395,0.0,0,177.62663416508911
24,0.029615843999636127,0.7052476672304235,50.73672135547516,85,0.0,0.0,0.13137973845005035,0.0,0,177.6243941179419
25,0.03074899799958075,0.7869321441853339,65.25786073206798,43,0.0,0.0,0.13333334028720856,0.0,0,177.62212266473384
26,0.03203140599998733,0.8624806979887017,63.72197099031297,64,0.0,0.0,0.1357753425836563,0.0,0,177.61972411374705
27,0.0332660809999652,0.9491506125042405,65.51966011986713,65,0.0,0.0,0.13772894442081451,0.0,0,177.61690102749154
28,0.03449514000021736,1.034670041428865,71.01744726364927,58,0.0,0.0,0.1428571492433548,0.0,0,177.61407406111795
29,0.03619102599986945,1.1593059804445733,76.21852843459237,80,0.0,0.0,0.14652015268802643,0.0,0,177.6111537902698
30,0.037999333999323426,1.3092526024603948,79.4997474283417,103,0.0,0.0,0.15115995705127716,0.0,0,177.60695042281765
31,0.03913484199983941,1.3993739737486761,84.31685616384605,58,0.0,0.0,0.15628816187381744,0.0,0,177.60224625801496
32,0.04025067400016269,1.509437095279471,91.47270609702281,76,0.0,0.0,0.16141636669635773,0.0,0,177.5991751398924
33,0.04150738899988937,1.6306215775224366,96.28981483252716,57,0.017638888888888888,0.0,0.16239316761493683,0.0,0,177.5960691714071
34,0.042628870999578794,1.7380002326744315,100.42624515975372,55,0.017638888888888888,0.0,0.16410256922245026,0.0,0,177.59246652516356
35,0.04375290600000881,1.8541992773567688,96.55161422032631,90,0.017638888888888888,0.0,0.16605617105960846,0.0,0,177.58915805729657
36,0.044990209999923536,1.9857381299179624,102.22393428930788,64,0.017638888888888888,0.0007669903939428206,0.16898657381534576,0.0,0,177.58575357842267
37,0.046117046999825106,2.1073061073578994,112.0675912705559,50,0.035277777777777776,0.0007669903939428206,0.17313797771930695,0.0,0,177.58190361317247
38,0.04723319899949274,2.2419129214948645,115.41862343438501,63,0.035277777777777776,0.0007669903939428206,0.1755799800157547,0.0,0,177.57830399236903
39,0.04853954200007138,2.392243038707657,117.98425743481668,83,0.05291666666666667,0.0007669903939428206,0.17899878323078156,0.0,0,177.57465074957955
40,0.04973806899943156,2.532985775996165,112.11995114811573,88,0.05291666666666667,0.0015339807878856412,0.17899878323078156,0.0,0,177.57026407325614
41,0.05088494699975854,2.66222365737553,114.38887917570835,66,0.05291666666666667,0.0015339807878856412,0.17802198231220245,0.0,0,177.5661342126538
42,0.05253848099982861,2.8374809623914645,123.7962038439578,61,0.07055555555555555,0.0023009711818284618,0.168742373585701,0.0,0,177.56208804195492
43,0.05374811699948623,3.046869339937855,137.02579957407482,39,0.07055555555555555,0.0023009711818284618,0.16141636669635773,0.0,0,177.55609209732665
44,0.055006152999339974,3.2317140248780745,148.0213738616391,35,0.07055555555555555,0.0023009711818284618,0.1526251584291458,0.0,0,177.55158440272425
45,0.05614407599932747,3.38549559886361,137.35741213195374,110,0.08819444444444444,0.0030679615757712823,0.14847375452518463,0.0,0,177.54678754464385
46,0.0573947249995399,3.5569179519098304,137.40977200951357,81,0.08819444444444444,0.0030679615757712823,0.14261294901371002,0.0,0,177.542353123277
47,0.05862288600019383,3.74981603598645,147.27088228328154,64,0.08819444444444444,0.0030679615757712823,0.13553114235401154,0.0,0,177.53737472510542
48,0.059746040999925754,3.9388791680933553,163.29300481658947,57,0.08819444444444444,0.0030679615757712823,0.13040293753147125,0.0,0,177.53237915520174
49,0.06086416299967823,4.12257336744266,170.69320084504542,75,0.10583333333333333,0.0030679615757712823,0.1250305324792862,0.0,0,177.52771815320054
50,0.06200903599983576,4.308952033170766,163.6246173744684,103,0.10583333333333333,0.0030679615757712823,0.12087912857532501,0.0,0,177.5229902203276
51,0.06311044199992466,4.4937967181109855,167.97048721193428,89,0.10583333333333333,0.0030679615757712823,0.11843712627887726,0.0,0,177.51805838464136
52,0.06423679399995308,4.692830725339148,174.49801861439306,82,0.10583333333333333,0.0030679615757712823,0.11282052099704742,0.0,0,177.51322710136307
53,0.06548460999965755,4.915257939582566,182.80578585388608,54,0.10583333333333333,0.0030679615757712823,0.10695971548557281,0.0,0,177.5081984702291
54,0.06661013399934745,5.120811365159241,176.92402627466518,55,0.10583333333333333,0.0030679615757712823,0.10622711479663849,0.0,0,177.5025237566018
55,0.06775126599950454,5.336719161054146,184.16714267044165,25,0.10583333333333333,0.0030679615757712823,0.10525031387805939,0.0,0,177.49731159803565
56,0.06905113299944787,5.57180171679762,194.4994918422481,21,0.10583333333333333,0.0030679615757712823,0.10744811594486237,0.0,0,177.49193653686316
57,0.07023943999956828,5.792311455056181,179.73400637037605,59,0.10583333333333333,0.0030679615757712823,0.10891331732273102,0.0,0,177.48570262143207
58,0.07180625000000873,6.030461972375426,180.97319013929203,32,0.12347222222222222,0.0030679615757712823,0.11257632076740265,0.0,0,177.47990014014033
59,0.07311699099955149,6.350680461846554,199.59585325807151,-25,0.12347222222222222,0.0030679615757712823,0.11623932421207428,0.0,0,177.47209820710216
60,0.07423132599978999,6.562369810574773,188.42574604530782,12,0.12347222222222222,0.003834951969714103,0.12136752903461456,0.0,0,177.46543924029098
61,0.07534807799947885,6.770607702530248,184.69074144603997,17,0.12347222222222222,0.003834951969714103,0.1250305324792862,0.0,0,177.45968341214186
62,0.07650876400020934,6.985365012834238,193.80136014145035,-14,0.1411111111111111,0.003834951969714103,0.13333334028720856,0.0,0,177.4538278219934
63,0.0777533049995327,7.230034948501998,195.73867561116407,-7,0.1411111111111111,0.003834951969714103,0.1409035474061966,0.0,0,177.4476492752176
64,0.07887056299932738,7.436355364472616,179.751459662896,23,0.15875,0.0046019423636569235,0.14822955429553986,0.0,0,177.44091950359498
65,0.08009681800012913,7.661083549897863,183.95770316020233,6,0.17638888888888887,0.0046019423636569235,0.15433456003665924,0.0,0,177.43478558313095
66,0.08121883599960711,7.875457365004881,189.3856771339047,-6,0.17638888888888887,0.005368932757599744,0.15897436439990997,0.0,0,177.42795260160148
67,0.08235675600008108,8.074107877036072,185.77284558227643,3,0.19402777777777777,0.006135923151542565,0.1645909696817398,0.0,0,177.42160817465523
68,0.0834660159998748,8.268156446703607,169.4714703686494,27,0.21166666666666667,0.006135923151542565,0.168742373585701,0.0,0,177.4150837675955
69,0.0846144560000539,8.471408901098453,173.0668486277577,22,0.22930555555555554,0.006902913545485385,0.1706959754228592,0.0,0,177.40863639079382
70,0.08573285500006023,8.675428345887244,180.7637506290527,23,0.24694444444444444,0.006902913545485385,0.17631258070468903,0.0,0,177.40187048866218
71,0.08699810799953411,8.881748761857862,173.24138155295717,28,0.26458333333333334,0.007669903939428206,0.17338217794895172,0.0,0,177.39519279159575
72,0.08812056399983703,9.062758494828369,166.0157184497006,65,0.2822222222222222,0.008436894333371026,0.16825397312641144,0.0,0,177.38753265727684
73,0.08955479499945795,9.292855613011215,174.53292519943295,33,0.2998611111111111,0.009203884727313847,0.1577533632516861,0.0,0,177.38064320550995
74,0.09115650700005062,9.592748857042857,190.48523456266113,-10,0.3351388888888889,0.009970875121256668,0.14749695360660553,0.0,0,177.3717117397202
75,0.09267580399955477,9.857360542953131,171.09462657300412,49,0.35277777777777775,0.011504855909142308,0.13821734488010406,0.0,0,177.36156705863922
76,0.09431225099979201,10.158404272575687,184.3067690106012,13,0.37041666666666667,0.01227184630308513,0.12722833454608917,0.0,0,177.3517783578558
77,0.09605593600008433,10.481690723622586,186.05209826259554,-20,0.4056944444444444,0.01303883669702795,0.11794872581958771,0.0,0,177.34105408214927
78,0.09781148699948972,10.794239309154285,179.85617941801567,20,0.42333333333333334,0.01303883669702795,0.11086691915988922,0.0,0,177.3294207145702
79,0.09913710299952072,11.071889831761586,184.62092827596018,1,0.4409722222222222,0.01380582709097077,0.10256411135196686,0.0,0,177.3174931514013
80,0.100912333999986,11.34992384956586,173.31119472303692,13,0.4586111111111111,0.01457281748491359,0.1010989099740982,0.0,0,177.3083436915535
81,0.10222891600005823,11.619520973036762,173.39846118563665,25,0.4586111111111111,0.01457281748491359,0.10085470974445343,0.0,0,177.29589830923535
82,0.10338558900002681,11.82315692262858,181.91566793536896,20,0.47624999999999995,0.01457281748491359,0.10354091227054596,0.0,0,177.28652585838137
83,0.10476653400019131,12.031778309781027,174.81217787975206,19,0.47624999999999995,0.015339807878856412,0.10744811594486237,0.0,0,177.27819165175842
84,0.10642478599947935,12.311346308373185,167.88322074933455,64,0.47624999999999995,0.015339807878856412,0.11257632076740265,0.0,0,177.26811886508398
85,0.10746905899941339,12.552948282465174,189.31586396382494,13,0.4938888888888889,0.015339807878856412,0.11623932421207428,0.0,0,177.2558470192542
86,0.10915936599940324,12.822161910739103,180.37977819361396,15,0.4938888888888889,0.015339807878856412,0.12087912857532501,0.0,0,177.24802016159472
87,0.11045877899960033,13.084472625467548,178.66935552665953,19,0.5115277777777778,0.015339807878856412,0.12722833454608917,0.0,0,177.23518953974383
88,0.1117098739996436,13.29999692616548,185.24924680667814,1,0.5115277777777778,0.015339807878856412,0.13748474419116974,0.0,0,177.2251901663106
89,0.11321108799984358,13.602191141378952,188.02432031734912,-14,0.5291666666666667,0.016106798272799233,0.14652015268802643,0.0,0,177.21545098658282
90,0.11490711499936879,13.865652341698311,171.82766485884176,24,0.5468055555555555,0.016106798272799233,0.15506716072559357,0.0,0,177.2036202155364
91,0.11628691999976581,14.116074705320642,181.21753623457124,28,0.5468055555555555,0.01687378866674205,0.16214896738529205,0.0,0,177.19006448712213
92,0.11761371200009307,14.374933963276344,176.41788079158684,10,0.5644444444444444,0.01687378866674205,0.1675213724374771,0.0,0,177.17888776622576
93,0.11884910499975376,14.587390302398505,165.4048532115026,60,0.5820833333333333,0.017640779060684873,0.17191697657108307,0.0,0,177.16801486829067
94,0.12015029099984531,14.80636605986918,175.89428201598852,47,0.5997222222222222,0.018407769454627694,0.17484737932682037,0.0,0,177.1577802781384
95,0.12179305199970258,15.062157356249111,172.50834326711953,22,0.635,0.019174759848570515,0.1794871836900711,0.0,0,177.14688520811572
96,0.1231846040000164,15.308744767901729,164.6020017555852,77,0.6526388888888889,0.019941750242513337,0.16947497427463531,0.0,0,177.1329609592838
97,0.1245881200002259,15.554948684357374,175.26596348527056,45,0.6702777777777778,0.020708740636456155,0.16117216646671295,0.0,0,177.12101835407202
98,0.12584104699999443,15.824545807828274,192.96360210049306,9,0.6879166666666666,0.021475731030398976,0.14993895590305328,0.0,0,177.10883591686775
99,0.1271204309996392,16.039303118132263,179.6816464928162,41,0.7231944444444444,0.022242721424341798,0.1428571492433548,0.0,0,177.09784422514508
100,0.1282673599998816,16.24025460134528,178.63444894161964,32,0.7408333333333333,0.023009711818284616,0.1347985416650772,0.0,0,177.08650717528383
101,0.1294572059996426,16.494511916937327,189.49039688902437,-1,0.7761111111111111,0.023776702212227437,0.12844933569431305,0.0,0,177.0762465788943
102,0.13061789299990778,16.703900294483716,194.25514574696888,-10,0.79375,0.02454369260617026,0.12405373156070709,0.0,0,177.06550485610157
103,0.13214168299964513,16.97042945637885,179.92599258809543,32,0.8290277777777777,0.02531068300011308,0.11721612513065338,0.0,0,177.05493102026838
104,0.13355344100000366,17.233890656698208,184.88272766375934,16,0.8466666666666667,0.0260776733940559,0.10989011824131012,0.0,0,177.04090636148203
105,0.13489385999946535,17.485847001108425,192.40509673985488,-14,0.8643055555555555,0.0260776733940559,0.10525031387805939,0.0,0,177.0277679944756
106,0.13626239399945916,17.730516936776183,172.8574091175184,32,0.8819444444444444,0.02684466378799872,0.10500611364841461,0.0,0,177.01516462526726
107,0.13775842999984889,18.000497555444056,183.83553011256274,2,0.8995833333333333,0.02761165418194154,0.10622711479663849,0.0,0,177.0021673651438
108,0.13915111599999364,18.251303414263358,180.5194045337735,5,0.9172222222222222,0.028378644575884363,0.10427351295948029,0.0,0,176.98780946126413
109,0.14051670499975444,18.48063354205226,171.6007720560825,32,0.934861111111111,0.028378644575884363,0.10720391571521759,0.0,0,176.97430288753014
110,0.14188019299945154,18.73028891528065,175.00416409747143,20,0.9701388888888889,0.02914563496982718,0.11355312168598175,0.0,0,176.96092752406568
111,0.1434793520002131,19.007172447494007,190.18852858982208,-12,0.9877777777777778,0.029912625363770002,0.11843712627887726,0.0,0,176.94744275969347
112,0.14517073600018193,19.31281811948022,173.11920850531754,44,1.0054166666666666,0.030679615757712823,0.12332113087177277,0.0,0,176.93146175264047
113,0.14651400499951706,19.558255045541923,181.30480269717094,22,1.0230555555555556,0.030679615757712823,0.13333334028720856,0.0,0,176.91436472940632
114,0.14799721199960914,19.816730808300655,186.99457605867246,-3,1.0406944444444444,0.03144660615165564,0.13968254625797272,0.0,0,176.9006442049767
115,0.14972010800011049,20.11700754752927,170.50121462732605,28,1.0583333333333333,0.03144660615165564,0.1528693586587906,0.0,0,176.88534792690848
116,0.15118796699971426,20.38967263257594,178.63444894161964,22,1.075972222222222,0.032213596545598466,0.16312576830387115,0.0,0,176.86738687577855
117,0.15273508100017352,20.648148395334673,176.92402627466518,11,1.093611111111111,0.032980586939541284,0.16630037128925323,0.0,0,176.85192104976292
118,0.1541483959999823,20.90585716769946,168.87805842297132,63,1.1112499999999998,0.0337475773334841,0.1677655726671219,0.0,0,176.83545733423125
119,0.1555680739993477,21.14324069462476,176.6447735943461,44,1.1465277777777778,0.03451456772742693,0.16947497427463531,0.0,0,176.82027140217076
120,0.15685794799992436,21.38522616391372,173.92205996123494,33,1.1641666666666666,0.035281558121369745,0.17289377748966217,0.0,0,176.80487672294225
121,0.15811600899996847,21.59154657988434,166.8534764906579,70,1.1818055555555556,0.03604854851531257,0.16800977289676666,0.0,0,176.7907676352872
122,0.1596239569998943,21.8389009819309,176.29570774394722,40,1.2170833333333333,0.03681553890925539,0.15555556118488312,0.0,0,176.7768946679878
123,0.16116118899935827,22.1487651010838,195.04054391036632,-8,1.252361111111111,0.037582529303198206,0.14554335176944733,0.0,0,176.7601205879315
124,0.16249198199966486,22.39113406556973,173.88715337619504,47,1.27,0.03834951969714103,0.1389499455690384,0.0,0,176.74285742908359
125,0.16382888599946455,22.62966807808595,182.3345469558476,21,1.2876388888888888,0.039883500485026674,0.1308913379907608,0.0,0,176.72777942813886
126,0.1653959629993551,22.939148702041877,194.23769245444893,-17,1.3229166666666665,0.04065049087896949,0.12356533110141754,0.0,0,176.7125077744777
127,0.16680889899998874,23.18535261849752,178.79152857429912,33,1.3405555555555555,0.04141748127291231,0.11843712627887726,0.0,0,176.69444808304436
128,0.16829560899986973,23.455333237165394,178.52972918649996,8,1.3758333333333332,0.042184471666855135,0.11135531961917877,0.0,0,176.67801792393055
129,0.16974861299968325,23.737202206939383,191.42771235873806,-10,1.3934722222222222,0.04295146206079795,0.10695971548557281,0.0,0,176.66057954974903
130,0.17101089199968555,23.944673108500915,169.1049512257306,45,1.411111111111111,0.04371845245474077,0.10354091227054596,0.0,0,176.64338757993792
131,0.17223899100008566,24.167483817941303,172.15927741672067,6,1.4463888888888887,0.04371845245474077,0.10573871433734894,0.0,0,176.6283327631309
132,0.17362295400016592,24.414838219987864,184.1845959629616,7,1.4640277777777777,0.045252433242626414,0.10476191341876984,0.0,0,176.61357896838615
133,0.17507669299993722,24.63918291021614,166.64403698041858,20,1.4816666666666667,0.04601942363656923,0.10598291456699371,0.0,0,176.59682667198126
134,0.1767300189994785,24.921435375187098,172.56070314467937,41,1.5169444444444444,0.04601942363656923,0.11672772467136383,0.0,0,176.57908596405522
135,0.17848319099994114,25.24894027340068,187.25637544647162,3,1.5345833333333332,0.04678641403051206,0.12087912857532501,0.0,0,176.5587305450147
136,0.18021429599957628,25.543081089477752,167.34216868121632,61,1.5522222222222222,0.047553404424454875,0.12356533110141754,0.0,0,176.5369377043771
137,0.18185702699975081,25.834153943979054,180.81611050661255,12,1.5875,0.0483203948183977,0.13113553822040558,0.0,0,176.5152089831064
138,0.1836177189998125,26.15935787101081,186.01719167755564,-3,1.605138888888889,0.04908738521234052,0.14505495131015778,0.0,0,176.49439641743874
139,0.18535184699976526,26.463469562209138,172.10691753916083,44,1.6227777777777777,0.049854375606283335,0.1577533632516861,0.0,0,176.47188058045103
140,0.18697130100008508,26.751090959937695,178.9137016219387,33,1.6580555555555554,0.05062136600022616,0.16483516991138458,0.0,0,176.4494933342341
