,Time [sec],Motor angle [rad],Motor speed [rad/sec],Motor current [units],Linear encoder [mm],Joint angle [rad],Force sensor on motor [units],Force sensor on handle [units],Desired motor angle [rad],Desired motor speed [rad/sec]
0,9.2290001703077e-06,0.0,0.0,42,0.8290277777777777,0.02454369260617026,0.19780221581459045,0.0,0,0.0
1,0.001416215000062948,0.0,0.0,6,0.8290277777777777,0.02454369260617026,0.19755801558494568,0.0,0,118.43525281108106
2,0.002620423000280425,0.0,0.0,20,0.8290277777777777,0.02454369260617026,0.19804641604423523,0.0,0,118.435205924276
3,0.003977087000293977,0.0,0.0,28,0.8290277777777777,0.02454369260617026,0.1973138153553009,0.0,0,118.43509228409465
4,0.0057251260000157345,0.0015339807878855805,0.7504915783575618,91,0.8290277777777777,0.02454369260617026,0.19780221581459045,0.0,0,118.43488303539564
5,0.006853112000044348,0.0065194183485139945,3.246312408709453,66,0.8290277777777777,0.02454369260617026,0.19780221581459045,0.0,0,118.43448654564905
6,0.007978145999913977,0.01342233189399944,5.602506898901797,50,0.8290277777777777,0.02454369260617026,0.1992674171924591,0.0,0,118.43415485508979
7,0.00910583199993198,0.022626216621313144,7.225663103256524,62,0.8290277777777777,0.02454369260617026,0.19877901673316956,0.0,0,118.43376477589327
8,0.01022602300008657,0.034514567727427004,9.669124056048586,57,0.8290277777777777,0.02454369260617026,0.19951161742210388,0.0,0,118.43331438890971
9,0.011438913999882061,0.04985437560628325,12.409290981679684,50,0.8290277777777777,0.02454369260617026,0.20000001788139343,0.0,0,118.43280812885482
10,0.012596819999998843,0.07094661143971082,15.865042900628456,48,0.8290277777777777,0.02454369260617026,0.20048841834068298,0.0,0,118.43219382028667
11,0.013719497000238334,0.09318933286405273,18.884462506578647,65,0.8290277777777777,0.02454369260617026,0.20170941948890686,0.0,0,118.43154318548528
12,0.014865869999994175,0.11811652066719436,21.34537675189065,61,0.8290277777777777,0.02454369260617026,0.20293042063713074,0.0,0,118.43085249144174
13,0.016094295000129932,0.14649516524307882,22.82890661608583,73,0.8290277777777777,0.02454369260617026,0.2034188210964203,0.0,0,118.43008641059092
14,0.017217842000263772,0.17333982903107747,23.19542575900464,54,0.8290277777777777,0.02454369260617026,0.20488402247428894,0.0,0,118.4291972999929
15,0.01833388000022751,0.20593692077364723,26.26720524251466,70,0.8290277777777777,0.02454369260617026,0.2063492238521576,0.0,0,118.42832232319998
16,0.01948472200001561,0.25118935401627374,35.918876006043305,31,0.8290277777777777,0.02454369260617026,0.20561662316322327,0.0,0,118.4273947646827
17,0.020595718000095076,0.29644178725890025,41.608649367544814,50,0.8290277777777777,0.02454369260617026,0.2073260247707367,0.0,0,118.42637729452746
18,0.02187230500021542,0.3367087829408981,34.55751918948773,69,0.8290277777777777,0.02454369260617026,0.20952382683753967,0.0,0,118.42533631012265
19,0.023382578000109788,0.40918937516849474,43.68559117741807,46,0.8290277777777777,0.02454369260617026,0.21098902821540833,0.0,0,118.42406892005867
20,0.02461468599994987,0.4789855010172914,57.80530482605219,29,0.8290277777777777,0.02454369260617026,0.2122100293636322,0.0,0,118.42247114002355
21,0.02584379500012801,0.5338253141842031,45.62290664713178,95,0.8290277777777777,0.02454369260617026,0.21489623188972473,0.0,0,118.42108865790344
22,0.02697537599988209,0.5948010505026573,49.9862297771176,63,0.8290277777777777,0.02454369260617026,0.21684983372688293,0.0,0,118.41963882782963
23,0.028238366000095994,0.6684321283211682,57.85766470361202,58,0.8290277777777777,0.02454369260617026,0.21953603625297546,0.0,0,118.41824159744922
24,0.029485487999863835,0.7347767973972221,54.90805826774161,78,0.8466666666666667,0.02454369260617026,0.22246643900871277,0.0,0,118.41661141566496
25,0.03059273100006976,0.8087913704127043,59.65535383316618,71,0.8466666666666667,0.02454369260617026,0.22490844130516052,0.0,0,118.41492854330507
26,0.03183408699987922,0.8812719626403008,62.63986685407649,67,0.8466666666666667,0.02454369260617026,0.22930404543876648,0.0,0,118.41337349125
27,0.032965307000267785,0.961805954004297,62.866759656835754,89,0.8466666666666667,0.02454369260617026,0.23028084635734558,0.0,0,118.41156194082538
28,0.034084614000221336,1.036587517413722,71.78539213452677,47,0.8466666666666667,0.02454369260617026,0.2349206507205963,0.0,0,118.40984838307526
29,0.03521275799994328,1.1175050039746894,67.49188217462073,96,0.8466666666666667,0.02454369260617026,0.23882785439491272,0.0,0,118.40809399326292
30,0.03633838099995046,1.2091603560508566,79.58701389094142,42,0.8466666666666667,0.02454369260617026,0.24126985669136047,0.0,0,118.4062664918561
31,0.03746850700008508,1.2954467753694239,77.16100623066932,89,0.8643055555555555,0.02454369260617026,0.24420025944709778,0.0,0,118.40438378085874
32,0.03865755700007867,1.389786593824391,84.50884238156544,53,0.8643055555555555,0.02454369260617026,0.24737486243247986,0.0,0,118.40243395615947
33,0.03998902600005749,1.5010002009460999,77.02137989050976,115,0.8643055555555555,0.02454369260617026,0.2527472674846649,0.0,0,118.4003180187609
34,0.04121994400020412,1.6087623512950662,87.03956979695721,64,0.8643055555555555,0.02454369260617026,0.2539682686328888,0.0,0,118.39787021019698
35,0.04261359500014805,1.7426021750380882,96.8657734856853,66,0.8643055555555555,0.02454369260617026,0.2588522732257843,0.0,0,118.39553354369609
36,0.04383618500014563,1.8710730660235109,96.37708129512687,106,0.8819444444444444,0.02454369260617026,0.26129427552223206,0.0,0,118.39280247678278
37,0.0449754229998689,1.97691774038762,100.39133857471384,80,0.8819444444444444,0.02454369260617026,0.26251527667045593,0.0,0,118.39033187891631
38,0.04621449800015398,2.108840088145785,107.58209509293047,68,0.8819444444444444,0.02454369260617026,0.2637362778186798,0.0,0,118.3879668384799
39,0.04734931200027859,2.2258061232220654,99.0823416357181,113,0.8819444444444444,0.02454369260617026,0.267887681722641,0.0,0,118.3853256721718
40,0.04859773399994083,2.3577284709802306,101.73524209874947,79,0.8995833333333333,0.02454369260617026,0.2676434814929962,0.0,0,118.38284379224693
41,0.04972179300011703,2.48274790519291,111.9454182229163,70,0.8995833333333333,0.02454369260617026,0.2688644826412201,0.0,0,118.38004392154767
42,0.050826717000290955,2.6238741376783894,122.15559434708312,64,0.8995833333333333,0.02531068300011308,0.2720390856266022,0.0,0,118.37746064708088
43,0.05194905500002278,2.778806197254839,128.94492513734107,39,0.9172222222222222,0.02531068300011308,0.2735042870044708,0.0,0,118.37486379900174
44,0.05308637899997848,2.925684857694889,133.70967399528558,6,0.9172222222222222,0.02531068300011308,0.2730158865451813,0.0,0,118.37216761407545
45,0.054196335000142426,3.061058662225797,122.97589909552046,58,0.9172222222222222,0.02531068300011308,0.2708180844783783,0.0,0,118.36937537921911
46,0.05533176600010847,3.192597514786991,121.12585008840647,32,0.934861111111111,0.02531068300011308,0.2708180844783783,0.0,0,118.3665920536287
47,0.05660501700003806,3.3509810311361834,126.64109052470855,18,0.934861111111111,0.02531068300011308,0.26715508103370667,0.0,0,118.36368527924317
48,0.057894249000128184,3.5212528985914893,133.69222070276564,7,0.934861111111111,0.02531068300011308,0.26129427552223206,0.0,0,118.36035402290187
49,0.05910529699986,3.6945927276225667,138.24753005047086,-8,0.9524999999999999,0.0260776733940559,0.25518926978111267,0.0,0,118.3569037707194
50,0.06042625700001736,3.853743234365702,127.3043156404664,19,0.9524999999999999,0.0260776733940559,0.24957266449928284,0.0,0,118.35359201374708
51,0.061764080000102695,4.02171413063918,124.07545652427689,12,0.9701388888888889,0.0260776733940559,0.23956045508384705,0.0,0,118.34990155055642
52,0.06348380200006432,4.242607364094712,128.12462038890374,-3,0.9701388888888889,0.0260776733940559,0.23663005232810974,0.0,0,118.34608088015456
53,0.06507577999991554,4.41057826036819,133.01154229448787,-5,0.9701388888888889,0.0260776733940559,0.22930404543876648,0.0,0,118.34104671710953
54,0.0662147860002733,4.591971488535666,124.40706908215581,18,0.9877777777777778,0.02684466378799872,0.22344323992729187,0.0,0,118.3362633451776
55,0.06735530000014478,4.726578302672632,117.0243263462198,13,0.9877777777777778,0.02684466378799872,0.2170940339565277,0.0,0,118.33276834575275
56,0.06856890400013071,4.879209391067253,117.9144442647369,15,0.9877777777777778,0.02684466378799872,0.21172162890434265,0.0,0,118.32920799251256
57,0.06970378599999094,5.016117176386047,119.69468010177113,7,0.9877777777777778,0.02684466378799872,0.20586082339286804,0.0,0,118.3253527426891
58,0.07083176600008301,5.151874476113926,122.48720690496205,8,1.0054166666666666,0.02684466378799872,0.2053724229335785,0.0,0,118.32168531762696
59,0.07195321300014257,5.283029833478148,122.97589909552046,15,1.0054166666666666,0.02684466378799872,0.20293042063713074,0.0,0,118.31798058197687
60,0.07307437600002231,5.411117229266599,113.0798822367126,26,1.0054166666666666,0.02684466378799872,0.20048841834068298,0.0,0,118.31423838758593
61,0.07421063099991443,5.537670644267164,109.74630336540345,43,1.0054166666666666,0.02684466378799872,0.19780221581459045,0.0,0,118.31043842045199
62,0.075321778000216,5.665758040055616,113.34168162451176,34,1.0054166666666666,0.02684466378799872,0.19706961512565613,0.0,0,118.30652739998766
63,0.07658060599987948,5.8164716524653794,122.3475805648025,20,1.0054166666666666,0.02684466378799872,0.2012210190296173,0.0,0,118.30264448552253
64,0.0778251720003027,5.977539635193372,130.42845500153624,-2,1.0054166666666666,0.02684466378799872,0.2031746208667755,0.0,0,118.29817583025026
65,0.0790807510002196,6.125952276421309,122.3475805648025,20,1.0054166666666666,0.02684466378799872,0.20781442523002625,0.0,0,118.2936850493087
66,0.08020536899994113,6.257491128982501,113.55112113475109,31,1.0230555555555556,0.02684466378799872,0.21050062775611877,0.0,0,118.28908123063346
67,0.08134565799991833,6.386729010361867,112.25957748827528,46,1.0230555555555556,0.02684466378799872,0.21465203166007996,0.0,0,118.28489510346324
68,0.08245794699996623,6.51558339654426,116.7450736659007,38,1.0230555555555556,0.02761165418194154,0.2180708348751068,0.0,0,118.28059034370088
69,0.08359096000003774,6.654792153044882,122.64428653764153,3,1.0230555555555556,0.02761165418194154,0.21978023648262024,0.0,0,118.27633279010993
70,0.08482930099989971,6.817394116560761,128.3864197767029,-4,1.0230555555555556,0.02761165418194154,0.22393164038658142,0.0,0,118.27193651717026
71,0.08596720200011987,6.950083454712869,116.43091440054172,33,1.0406944444444444,0.02761165418194154,0.22564104199409485,0.0,0,118.26706299829456
72,0.08707646699986071,7.075102888925548,112.92280260403312,48,1.0406944444444444,0.02761165418194154,0.2300366461277008,0.0,0,118.26252164007478
73,0.0881942330001948,7.2005058183352,114.10962649538926,52,1.0406944444444444,0.02761165418194154,0.2349206507205963,0.0,0,118.25803637813499
74,0.0893263670000124,7.334729137275193,116.48327427810156,42,1.0583333333333333,0.02761165418194154,0.23638585209846497,0.0,0,118.25345863458017
75,0.09043584100027147,7.472020417790958,116.13420842770269,47,1.0583333333333333,0.028378644575884363,0.24322345852851868,0.0,0,118.24876259053259
76,0.09160451400020975,7.609695193503695,123.04571226560023,16,1.0583333333333333,0.028378644575884363,0.24615386128425598,0.0,0,118.24410248907085
77,0.09283887299989146,7.750054435595231,116.60544732574115,29,1.075972222222222,0.028378644575884363,0.25250306725502014,0.0,0,118.23913159345851
78,0.09406851799985816,7.891180668080709,113.28932174695193,58,1.075972222222222,0.028378644575884363,0.255921870470047,0.0,0,118.23381207596472
79,0.09532548900006077,8.04381175647533,120.16591899980959,51,1.093611111111111,0.02914563496982718,0.26153847575187683,0.0,0,118.22844216171956
80,0.09656571000004988,8.198743816051781,122.66173983016148,26,1.093611111111111,0.02914563496982718,0.2659340798854828,0.0,0,118.22287997030045
81,0.09784043900026518,8.354826361219144,124.26744274199626,8,1.1112499999999998,0.02914563496982718,0.2695970833301544,0.0,0,118.21731962485002
82,0.09907314400015821,8.498253564886452,116.04694196510297,13,1.1112499999999998,0.029912625363770002,0.27130648493766785,0.0,0,118.21152975824882
83,0.10021694099987144,8.621739018311246,112.3119373658351,42,1.1288888888888888,0.029912625363770002,0.2715506851673126,0.0,0,118.20585864244585
84,0.10144630700006019,8.767467193160382,115.57570306706451,48,1.1288888888888888,0.029912625363770002,0.2730158865451813,0.0,0,118.2005331275697
85,0.10257541600003606,8.910510901630719,123.02825897308028,29,1.1465277777777778,0.029912625363770002,0.2739926874637604,0.0,0,118.19474113345966
86,0.10382280800013177,9.07963228349511,129.74777659325846,19,1.1465277777777778,0.030679615757712823,0.2744810879230499,0.0,0,118.18935935767058
87,0.1049254459999247,9.222675991965446,131.0218669472143,4,1.1641666666666666,0.030679615757712823,0.2737484872341156,0.0,0,118.1833446398239
88,0.10606888400025127,9.353831349329669,119.92157290453038,36,1.1818055555555556,0.03144660615165564,0.2720390856266022,0.0,0,118.17796745224699
89,0.10718778399996154,9.480768259527204,117.44320536669844,22,1.1818055555555556,0.03144660615165564,0.2708180844783783,0.0,0,118.17233138653602
90,0.10830765499986228,9.617292549649028,121.26547642856602,19,1.1994444444444443,0.032213596545598466,0.26837608218193054,0.0,0,118.16675722337548
91,0.10943542499990144,9.765321695679992,126.51891747706895,7,1.2170833333333333,0.032213596545598466,0.26520147919654846,0.0,0,118.16111974348993
92,0.11056544600023699,9.916802298483699,131.40583938265308,6,1.2170833333333333,0.032980586939541284,0.2610500752925873,0.0,0,118.15538337733099
93,0.11184025600005043,10.065214939711636,124.18017627939655,5,1.234722222222222,0.032980586939541284,0.2549450695514679,0.0,0,118.14957605652873
94,0.11310804899994764,10.207875152985,116.43091440054172,18,1.252361111111111,0.0337475773334841,0.24932846426963806,0.0,0,118.14295314922809
95,0.11431609999999637,10.352836337440193,116.2214748903024,25,1.27,0.0337475773334841,0.24322345852851868,0.0,0,118.13629152327327
96,0.11577124599989475,10.516588786546984,119.34561425137225,22,1.2876388888888888,0.03451456772742693,0.23736265301704407,0.0,0,118.12987406558614
97,0.11709478000011586,10.686860654002292,123.56931104119853,17,1.2876388888888888,0.03451456772742693,0.23223444819450378,0.0,0,118.12205361531548
98,0.11839228899998488,10.835273295230227,121.4225560612455,13,1.3052777777777778,0.035281558121369745,0.22539684176445007,0.0,0,118.11485474254827
99,0.12017125700003817,11.01551603780679,111.87560505283652,45,1.3229166666666665,0.03604854851531257,0.21758243441581726,0.0,0,118.10771813303249
100,0.1218977610001275,11.236792766459294,119.45033400649191,31,1.3229166666666665,0.03604854851531257,0.21172162890434265,0.0,0,118.09780579107372
101,0.12312897800029532,11.389423854853915,121.96360812936375,18,1.3405555555555555,0.03604854851531257,0.20708182454109192,0.0,0,118.0880446898567
102,0.12439472899995963,11.544739409627336,123.55185774867859,13,1.3405555555555555,0.03604854851531257,0.20415142178535461,0.0,0,118.08099889787839
103,0.12554328500027623,11.688933603688586,114.38887917570835,31,1.3581944444444445,0.03681553890925539,0.20146521925926208,0.0,0,118.07368181418411
104,0.12681247899990922,11.83159381696195,112.43411041347471,57,1.3581944444444445,0.03681553890925539,0.20170941948890686,0.0,0,118.06697758501605
105,0.12801555600026404,11.965050145508002,116.23892818282235,27,1.3581944444444445,0.03681553890925539,0.20170941948890686,0.0,0,118.05949766559672
106,0.12943388200028494,12.134938517766336,124.12781640183671,3,1.3758333333333332,0.03681553890925539,0.20170941948890686,0.0,0,118.05233808883693
107,0.13066468800025177,12.2937055293125,130.48081487909607,-9,1.3758333333333332,0.03681553890925539,0.20512822270393372,0.0,0,118.04381091472406
108,0.13196941700016396,12.455540502434435,117.93189755725685,26,1.3758333333333332,0.037582529303198206,0.20781442523002625,0.0,0,118.03633516261198
109,0.13310496200028865,12.582860907828943,114.17943966546903,50,1.3934722222222222,0.037582529303198206,0.21001222729682922,0.0,0,118.0283333332445
110,0.13435952500003623,12.730890053859907,115.99458208754314,30,1.3934722222222222,0.037582529303198206,0.2131868302822113,0.0,0,118.021304540297
111,0.13574619000019084,12.9000114357243,121.68435544904466,26,1.3934722222222222,0.037582529303198206,0.21758243441581726,0.0,0,118.01346919482384
112,0.13699147199986328,13.064147380028064,128.3166066066231,-2,1.411111111111111,0.03834951969714103,0.222222238779068,0.0,0,118.00472349180647
113,0.13841425500004334,13.224448372362113,117.84463109465713,19,1.411111111111111,0.03834951969714103,0.22832724452018738,0.0,0,117.99679314804698
114,0.1398223579999467,13.382448393514334,113.09733552923255,36,1.42875,0.03834951969714103,0.2329670488834381,0.0,0,117.98764400605616
115,0.14118121699993935,13.539681424272612,113.95254686270978,48,1.42875,0.03911651009108385,0.23736265301704407,0.0,0,117.97849642570448
116,0.1423705920001339,13.681191151955062,116.95451317614003,39,1.4463888888888887,0.03911651009108385,0.24029305577278137,0.0,0,117.96958119240699
117,0.1438029020000613,13.848778553031568,122.57447336756177,30,1.4640277777777777,0.039883500485026674,0.24737486243247986,0.0,0,117.961707337266
118,0.14514018299996678,14.006011583789848,118.01916401985656,18,1.4640277777777777,0.039883500485026674,0.25543347001075745,0.0,0,117.95213777787741
119,0.14650160200017126,14.160176652972353,111.17747335203879,63,1.4816666666666667,0.04065049087896949,0.26129427552223206,0.0,0,117.94311689367046
120,0.14786909500026013,14.32507958767006,118.89182864585374,49,1.4993055555555554,0.04065049087896949,0.2649572789669037,0.0,0,117.9338476460556
121,0.1491102760001013,14.478477666458625,120.91641057816715,28,1.5169444444444444,0.04141748127291231,0.26715508103370667,0.0,0,117.92445017090404
122,0.15032651999990776,14.63225924044416,122.39994044236234,17,1.5345833333333332,0.042184471666855135,0.26642248034477234,0.0,0,117.91584534921229
123,0.15179279499989207,14.787958290414553,113.42894808711148,43,1.5522222222222222,0.04295146206079795,0.26739928126335144,0.0,0,117.90734384302267
124,0.15317086699997162,14.942506854794031,110.33971531108152,52,1.569861111111111,0.04295146206079795,0.26935288310050964,0.0,0,117.89700308491646
125,0.15472814400027346,15.12159911177968,117.1464993938594,49,1.5875,0.04371845245474077,0.2717948853969574,0.0,0,117.88719315015534
126,0.15596118200028286,15.294555445613785,124.66886846995496,22,1.6227777777777777,0.044485442848683596,0.2725274860858917,0.0,0,117.87600115749677
127,0.15719746500008114,15.454089447553892,130.30628195389664,-13,1.6404166666666666,0.045252433242626414,0.2715506851673126,0.0,0,117.86705938295941
128,0.15845996899997772,15.600584612796972,118.75220230569418,11,1.6404166666666666,0.045252433242626414,0.2695970833301544,0.0,0,117.85802305021731
129,0.1599265650002053,15.757050653161306,115.34881026430524,27,1.6756944444444444,0.04601942363656923,0.27032968401908875,0.0,0,117.84872166864484
130,0.16124577300024612,15.918885626283242,118.75220230569418,31,1.6933333333333334,0.04678641403051206,0.2676434814929962,0.0,0,117.83782355104206
131,0.1629154259999268,16.092992445708262,125.50662651091224,7,1.7109722222222221,0.047553404424454875,0.2598290741443634,0.0,0,117.82793517489141
132,0.16437170500012144,16.312351698375906,126.64109052470855,-9,1.728611111111111,0.0483203948183977,0.2561660706996918,0.0,0,117.815303904704
133,0.16580716999988,16.466516767558414,114.99974441390637,5,1.7462499999999999,0.0483203948183977,0.24932846426963806,0.0,0,117.80418098669568
134,0.16748579100021743,16.671303202741147,114.0049067402696,33,1.7638888888888888,0.04908738521234052,0.243956059217453,0.0,0,117.79312051828468
