,Time [sec],Motor angle [rad],Motor speed [rad/sec],Motor current [units],Linear encoder [mm],Joint angle [rad],Force sensor on motor [units],Force sensor on handle [units],Desired motor angle [rad],Desired motor speed [rad/sec]
0,1.1096999514847994e-05,0.0,0.0,-38,-2.2401388888888887,-0.31139809994078516,0.18998780846595764,0.016117217019200325,0,0.0
1,0.0012074679998477222,0.0,0.0,-5,-2.2401388888888887,-0.31139809994078516,0.19072040915489197,0.016605617478489876,0,17.765287921956528
2,0.0025229860002582427,-0.00038349519697167267,-0.17453292519943295,10,-2.2401388888888887,-0.31139809994078516,0.18998780846595764,0.016605617478489876,0,17.7652878708335
3,0.004045358000439592,-0.0015339807878858025,-0.8552113334772214,68,-2.2401388888888887,-0.312165090334728,0.1904762089252472,0.01684981770813465,0,17.765287698741584
4,0.005258547000266844,0.0034514567727423895,2.0943951023931953,87,-2.2401388888888887,-0.312165090334728,0.19096460938453674,0.018070818856358528,0,17.76528734808769
5,0.007008701999438927,0.028378644575884238,13.683381335635543,82,-2.2577777777777777,-0.312165090334728,0.19169721007347107,0.017094017937779427,0,17.76528695226953
6,0.008373844999368885,0.056757289151768475,19.984019935335073,56,-2.2577777777777777,-0.312165090334728,0.1924298107624054,0.017582418397068977,0,17.765286199389678
7,0.009616114999516867,0.08283496254582445,21.13593724165133,48,-2.2577777777777777,-0.312165090334728,0.19316241145133972,0.017826618626713753,0,17.765285462998847
8,0.010892938000324648,0.10737865515199463,19.879300180215413,36,-2.2577777777777777,-0.312165090334728,0.1934066116809845,0.017826618626713753,0,17.765284679301885
9,0.012375959000564762,0.1357572997278793,21.22320370425105,27,-2.2577777777777777,-0.312165090334728,0.19389501214027405,0.01684981770813465,0,17.765283761015244
10,0.013628130000142846,0.17679128580381986,27.12241657599188,5,-2.2577777777777777,-0.312165090334728,0.1943834125995636,0.016605617478489876,0,17.765282550904683
11,0.014714868999362807,0.20401944478878997,25.62143341927676,4,-2.2577777777777777,-0.312165090334728,0.19462761282920837,0.016605617478489876,0,17.76528140905949
12,0.01583091499924194,0.22664566141010356,21.729349187329404,-10,-2.2577777777777777,-0.312165090334728,0.19609281420707703,0.01684981770813465,0,17.765280328937052
13,0.017089516999476473,0.2462039164556451,16.79006740418545,-2,-2.2577777777777777,-0.312165090334728,0.19658121466636658,0.01684981770813465,0,17.76527913347637
14,0.01820624200081511,0.2611602291375301,14.03244718603441,21,-2.2577777777777777,-0.312165090334728,0.19560441374778748,0.01587301678955555,0,17.765277680509016
15,0.019334193999384297,0.2757330466224439,12.985249634837812,39,-2.2577777777777777,-0.312165090334728,0.19609281420707703,0.017338218167424202,0,17.765276298309722
16,0.020455032999961986,0.29068935930432893,13.072516097437529,36,-2.2577777777777777,-0.312165090334728,0.19584861397743225,0.01684981770813465,0,17.76527481342814
17,0.021624892000545515,0.3067961575771281,13.910274138394806,36,-2.2577777777777777,-0.312165090334728,0.19609281420707703,0.01684981770813465,0,17.76527324952225
18,0.022828551000202424,0.32635441262267006,15.219271077390554,36,-2.2577777777777777,-0.312165090334728,0.19609281420707703,0.01684981770813465,0,17.765271523245808
19,0.023969583999132738,0.34514567727426915,16.318828506146982,35,-2.2577777777777777,-0.312165090334728,0.1963370144367218,0.01684981770813465,0,17.765269646909335
20,0.025107576000664267,0.36585441791072526,17.697638615222502,46,-2.2754166666666666,-0.312165090334728,0.1963370144367218,0.016117217019200325,0,17.765267774380195
21,0.02631569400000444,0.38886412972900986,18.465583486100005,38,-2.2754166666666666,-0.312165090334728,0.19682541489601135,0.016605617478489876,0,17.76526581589428
22,0.027428576999227516,0.4099563655624374,18.622663118779496,34,-2.2754166666666666,-0.312165090334728,0.19682541489601135,0.01684981770813465,0,17.76526363732765
23,0.028605444000277203,0.43066510619889353,18.43067690106012,24,-2.2754166666666666,-0.312165090334728,0.19658121466636658,0.016117217019200325,0,17.765261539917
24,0.029686673999094637,0.45137384683534987,18.657569703819384,26,-2.2754166666666666,-0.312165090334728,0.19755801558494568,0.017338218167424202,0,17.765259227421257
25,0.03082287299912423,0.4705486066839204,17.208946424664088,27,-2.2754166666666666,-0.312165090334728,0.1973138153553009,0.018070818856358528,0,17.765257017230947
26,0.03194200799953251,0.48895637613854803,16.58062789394613,32,-2.2754166666666666,-0.312165090334728,0.19609281420707703,0.01587301678955555,0,17.765254606326298
27,0.03308262499922421,0.5081311359871186,16.266468628587152,32,-2.2754166666666666,-0.312165090334728,0.1973138153553009,0.016605617478489876,0,17.76525214311937
28,0.03437080000003334,0.5322913333963173,18.762289458939044,29,-2.2754166666666666,-0.312165090334728,0.19706961512565613,0.017582418397068977,0,17.765249542244614
29,0.03544183200028783,0.5560680356085448,20.769418098732523,20,-2.2754166666666666,-0.312165090334728,0.19706961512565613,0.01684981770813465,0,17.76524649518789
30,0.036668381000708905,0.5798447378207723,21.17084382669122,14,-2.2754166666666666,-0.312165090334728,0.19658121466636658,0.016605617478489876,0,17.765243873155196
31,0.03781124200031627,0.6028544496390569,19.355701404617115,15,-2.2754166666666666,-0.312165090334728,0.1973138153553009,0.017582418397068977,0,17.76524077157296
32,0.03940113300086523,0.6231796950785415,15.428710587629872,26,-2.2754166666666666,-0.312165090334728,0.19706961512565613,0.017094017937779427,0,17.76523778665446
33,0.04083114199966076,0.6465729020937976,14.154620233674013,38,-2.2930555555555556,-0.312165090334728,0.19755801558494568,0.016117217019200325,0,17.765233481826225
34,0.04215369499979715,0.6676651379272251,16.16174887346749,41,-2.2930555555555556,-0.312165090334728,0.19462761282920837,0.016117217019200325,0,17.76522945846145
35,0.04369686300015019,0.6956602873061382,19.54768762233649,24,-2.2930555555555556,-0.312165090334728,0.1953602135181427,0.01684981770813465,0,17.76522560976792
36,0.045663131000765134,0.7351602925941934,21.22320370425105,17,-2.2930555555555556,-0.3129320807286708,0.19706961512565613,0.016117217019200325,0,17.76522096399695
37,0.0470955340006185,0.766606898745849,18.37831702350029,17,-2.2930555555555556,-0.3129320807286708,0.19755801558494568,0.0163614172488451,0,17.765214802485453
38,0.04873008899994602,0.7907670961550479,16.14429558094755,27,-2.2930555555555556,-0.3129320807286708,0.19658121466636658,0.0163614172488451,0,17.76521014318101
39,0.050535062999188085,0.8191457407309322,15.934856070708229,29,-2.2930555555555556,-0.3129320807286708,0.1973138153553009,0.01684981770813465,0,17.765204650523437
40,0.05210463600087678,0.8502088516856166,17.62782544514273,20,-2.310694444444444,-0.3129320807286708,0.19804641604423523,0.016117217019200325,0,17.765198367494648
41,0.05386992400053714,0.8793544866554437,19.11135530933791,16,-2.310694444444444,-0.3129320807286708,0.1992674171924591,0.016605617478489876,0,17.765192718149247
42,0.05551715799992962,0.9142525495798419,20.036379812894904,8,-2.310694444444444,-0.3129320807286708,0.20073261857032776,0.016117217019200325,0,17.76518615792961
43,0.05699366699991515,0.9449321653375549,19.00663555421825,12,-2.310694444444444,-0.3129320807286708,0.20073261857032776,0.016117217019200325,0,17.765179839306207
44,0.0582313119994069,0.9644904203830968,16.702800941585735,29,-2.310694444444444,-0.3129320807286708,0.20097681879997253,0.016605617478489876,0,17.765174013829167
45,0.059826216000146815,0.9836651802316674,14.259339988793672,21,-2.310694444444444,-0.3129320807286708,0.20170941948890686,0.0163614172488451,0,17.765169012979815
46,0.06150715200055856,1.012427320004523,15.04473815219112,48,-2.310694444444444,-0.3129320807286708,0.2021978199481964,0.017094017937779427,0,17.765162410163306
47,0.06322438899951521,1.0500098493077212,21.32792345937071,29,-2.310694444444444,-0.3129320807286708,0.20195361971855164,0.016117217019200325,0,17.76515525808318
48,0.06478728500042052,1.0829904362472627,23.841197582242543,-5,-2.310694444444444,-0.3129320807286708,0.20293042063713074,0.0163614172488451,0,17.76514774691641
49,0.06652922200009925,1.1167380135807468,19.80948701013564,-10,-2.310694444444444,-0.3129320807286708,0.2031746208667755,0.016605617478489876,0,17.765140731063465
50,0.06822836799983634,1.1397477253990314,13.229595730117017,7,-2.310694444444444,-0.3129320807286708,0.20415142178535461,0.017582418397068977,0,17.76513270962003
51,0.06972613499965519,1.1593059804445731,11.903145498601328,48,-2.328333333333333,-0.3129320807286708,0.20488402247428894,0.0163614172488451,0,17.76512468019168
52,0.07110961199941812,1.1800147210810294,15.184364492350667,48,-2.328333333333333,-0.3129320807286708,0.20512822270393372,0.016605617478489876,0,17.765117434484644
53,0.07260209000014584,1.2141457936114848,21.746802479849347,7,-2.328333333333333,-0.31369907112261364,0.20561662316322327,0.017094017937779427,0,17.765110601893724
54,0.07394886099973519,1.2494273517328547,24.03318379996192,-6,-2.328333333333333,-0.31369907112261364,0.2063492238521576,0.017094017937779427,0,17.765103080460793
55,0.07519448499988357,1.2735875491420534,20.69960492865275,14,-2.328333333333333,-0.31369907112261364,0.20708182454109192,0.017094017937779427,0,17.765096159237608
56,0.07676026899935096,1.2950632801724524,16.19665545850738,8,-2.328333333333333,-0.31369907112261364,0.20781442523002625,0.016117217019200325,0,17.76508964458515
57,0.07831510299911315,1.3165390112028514,13.386675362796508,32,-2.328333333333333,-0.31369907112261364,0.20854702591896057,0.017582418397068977,0,17.76508130111946
58,0.07981178000045475,1.337631247036279,13.753194505715317,37,-2.328333333333333,-0.31369907112261364,0.21001222729682922,0.017338218167424202,0,17.765072845856206
59,0.08144464200086077,1.364859406021249,16.406094968746697,30,-2.328333333333333,-0.31369907112261364,0.2092796266078949,0.017582418397068977,0,17.765064546698827
60,0.08295236499907332,1.3928545554001621,18.692476288859268,23,-2.328333333333333,-0.31369907112261364,0.21098902821540833,0.017582418397068977,0,17.765055313192832
61,0.08455683700049121,1.4258351423397033,20.123646275494618,21,-2.345972222222222,-0.31369907112261364,0.21147742867469788,0.018070818856358528,0,17.76504662127671
62,0.08618588600074872,1.4588157292792445,20.33308578573394,13,-2.345972222222222,-0.31369907112261364,0.21196582913398743,0.017826618626713753,0,17.76503719650587
63,0.08774802399966575,1.489111849839986,19.02408884673819,17,-2.345972222222222,-0.31369907112261364,0.21245422959327698,0.018315019086003304,0,17.76502744265166
64,0.08931362600014836,1.5128885520522135,16.21410875102732,23,-2.345972222222222,-0.3144660615165564,0.21269842982292175,0.01855921931564808,0,17.765017914613527
65,0.09077516599973023,1.5355147686735267,14.94001839707146,33,-2.345972222222222,-0.3144660615165564,0.21440783143043518,0.017826618626713753,0,17.765008193732534
66,0.09228501100005815,1.5612089468706112,16.545721308906245,35,-2.345972222222222,-0.3144660615165564,0.21343103051185608,0.017826618626713753,0,17.76499896383106
67,0.09380781400068372,1.5911215722343812,19.565140914856435,23,-2.363611111111111,-0.3144660615165564,0.2141636312007904,0.01855921931564808,0,17.76498927155355
68,0.09526744299910206,1.6221846831890654,20.821777976292353,14,-2.363611111111111,-0.3144660615165564,0.21440783143043518,0.018070818856358528,0,17.76497933415129
69,0.09664358800000628,1.6474953661891785,19.00663555421825,16,-2.363611111111111,-0.3144660615165564,0.2141636312007904,0.018315019086003304,0,17.764969656351802
70,0.09801665300074092,1.6678206116286631,15.498523757709647,23,-2.363611111111111,-0.3144660615165564,0.21343103051185608,0.01855921931564808,0,17.76496039523214
71,0.09951034299956518,1.688912847462091,13.892820845874864,33,-2.363611111111111,-0.3152330519104993,0.2141636312007904,0.018315019086003304,0,17.764951022469084
72,0.10083688700069615,1.7107720736894612,15.323990832510214,41,-2.363611111111111,-0.3152330519104993,0.21465203166007996,0.01855921931564808,0,17.76494067614361
73,0.10226550799961842,1.7372332422804884,18.500490071139893,26,-2.38125,-0.3152330519104993,0.2151404321193695,0.019291820004582405,0,17.764931356396538
74,0.10363701800088165,1.7659953820533443,20.804324683772407,29,-2.38125,-0.3152330519104993,0.21562883257865906,0.01953602023422718,0,17.764921181473838
75,0.10500688799947966,1.7939905314322573,20.821777976292353,10,-2.38125,-0.3152330519104993,0.21636143326759338,0.018803419545292854,0,17.764911278637168
76,0.1063862800001516,1.818917719235399,18.43067690106012,25,-2.38125,-0.3152330519104993,0.21684983372688293,0.019291820004582405,0,17.76490125595542
77,0.10777621300076135,1.8407769454627694,16.318828506146982,13,-2.38125,-0.3152330519104993,0.21758243441581726,0.018315019086003304,0,17.764891030622675
78,0.10944724100045278,1.8668546188568251,15.934856070708229,39,-2.38125,-0.3152330519104993,0.2183150351047516,0.019780220463871956,0,17.764880592173164
79,0.11124703499990574,1.8967672442205952,17.10422666954443,29,-2.38125,-0.3152330519104993,0.2183150351047516,0.01904761977493763,0,17.76486786332628
80,0.1131131189995358,1.9316653071449936,18.465583486100005,32,-2.38125,-0.31600004230444206,0.22002443671226501,0.01855921931564808,0,17.764853934568674
81,0.11483660299927578,1.965796379675449,19.285888234537342,9,-2.3988888888888886,-0.31600004230444206,0.21953603625297546,0.020268620923161507,0,17.764839252903553
82,0.11656345799929113,1.997626481024076,18.43067690106012,5,-2.3988888888888886,-0.31600004230444206,0.2202686369419098,0.020512821152806282,0,17.76482547622257
83,0.11819055900014064,2.0240876496151032,16.598081186466075,30,-2.3988888888888886,-0.31600004230444206,0.22075703740119934,0.019291820004582405,0,17.764811463661847
84,0.11983969100037939,2.0474808566303593,14.521139376592823,35,-2.3988888888888886,-0.31600004230444206,0.22148963809013367,0.018803419545292854,0,17.764798069189833
85,0.1214549390006141,2.072408044433501,14.852751934471744,33,-2.3988888888888886,-0.31600004230444206,0.2231990396976471,0.01904761977493763,0,17.764784303895077
86,0.12322001900065516,2.106922612160928,19.408061282176945,17,-2.3988888888888886,-0.31600004230444206,0.22344323992729187,0.02002442069351673,0,17.764770636532973
87,0.12492481899971608,2.145272131858069,22.165681500327985,4,-2.3988888888888886,-0.31600004230444206,0.22442004084587097,0.019780220463871956,0,17.76475549214834
88,0.12672821100022702,2.1782527187976104,19.21607506445757,9,-2.3988888888888886,-0.31600004230444206,0.2241758406162262,0.01904761977493763,0,17.76474065753353
89,0.12843997799973295,2.2012624306158948,13.386675362796508,30,-2.3988888888888886,-0.31600004230444206,0.22466424107551575,0.018803419545292854,0,17.76472474315184
90,0.13003549600034603,2.2223546664493226,12.601277199399059,44,-2.3988888888888886,-0.31600004230444206,0.2261294424533844,0.019780220463871956,0,17.764709426334942
91,0.13155512699995597,2.2515003014191497,18.151424220741028,35,-2.3988888888888886,-0.31600004230444206,0.22564104199409485,0.01953602023422718,0,17.764694964670934
92,0.1331931379991147,2.2906168115102337,24.015730507441976,9,-2.3988888888888886,-0.31600004230444206,0.22588524222373962,0.01953602023422718,0,17.764681024842798
93,0.135239447999993,2.334335263964974,21.729349187329404,0,-2.3988888888888886,-0.31600004230444206,0.22564104199409485,0.019780220463871956,0,17.764665817724637
94,0.1369736569995439,2.364631384525716,17.43583922742335,10,-2.3988888888888886,-0.31600004230444206,0.22637364268302917,0.01904761977493763,0,17.76464655563029
95,0.13874503099941649,2.391859543510686,15.638150097869193,22,-2.3988888888888886,-0.3167670326983849,0.22759464383125305,0.02002442069351673,0,17.764630001469747
96,0.1404228739993414,2.42023818808657,16.022122533307947,23,-2.3988888888888886,-0.3167670326983849,0.2271062433719635,0.01904761977493763,0,17.764612874795812
97,0.14220698999997694,2.449767318253369,16.912240451825053,32,-2.4165277777777776,-0.3167670326983849,0.2271062433719635,0.02002442069351673,0,17.764596449498793
98,0.14397318999908748,2.480830429208053,17.749998492782332,27,-2.4165277777777776,-0.3167670326983849,0.2280830442905426,0.019780220463871956,0,17.764578767253028
99,0.14565235500049312,2.5122770353597086,18.06415775814131,26,-2.4165277777777776,-0.3167670326983849,0.22759464383125305,0.01904761977493763,0,17.764561042688527
100,0.1473366629998054,2.5391216991477075,16.720254234105678,27,-2.4165277777777776,-0.3167670326983849,0.2271062433719635,0.01904761977493763,0,17.764543988689393
101,0.14909862899912696,2.5663498581326776,15.498523757709647,31,-2.4165277777777776,-0.3167670326983849,0.22759464383125305,0.01855921931564808,0,17.7645266838046
102,0.15097024200076703,2.5989469498752475,17.121679962064373,36,-2.4165277777777776,-0.3167670326983849,0.2271062433719635,0.01953602023422718,0,17.764508368120502
103,0.15273738900032185,2.6372964695723886,21.746802479849347,23,-2.4165277777777776,-0.3167670326983849,0.22637364268302917,0.018803419545292854,0,17.764488674182942
104,0.15458832900003472,2.680247931633186,23.212879051524585,10,-2.4165277777777776,-0.3167670326983849,0.22637364268302917,0.01904761977493763,0,17.764469854002467
105,0.15632372599975497,2.713228518572728,19.00663555421825,20,-2.4165277777777776,-0.3167670326983849,0.22588524222373962,0.018803419545292854,0,17.764449906593594
106,0.1580828799997107,2.740840172754669,15.62069680534925,20,-2.4165277777777776,-0.3167670326983849,0.22564104199409485,0.019780220463871956,0,17.764430986142383
107,0.1597970479997457,2.770369302921468,16.824973989225338,11,-2.4165277777777776,-0.3167670326983849,0.22490844130516052,0.020268620923161507,0,17.764411591112545
108,0.1612799989998166,2.8006654234822093,19.687313962496038,10,-2.4165277777777776,-0.3167670326983849,0.22564104199409485,0.019780220463871956,0,17.76439248328724
109,0.1629165769991232,2.834029505618722,20.996310901491785,4,-2.4165277777777776,-0.3167670326983849,0.22490844130516052,0.02002442069351673,0,17.76437578658555
110,0.16469968499950483,2.8624081501946064,16.510814723866357,20,-2.4165277777777776,-0.3167670326983849,0.22539684176445007,0.018803419545292854,0,17.76435718115968
111,0.16643588099941553,2.8850343668159195,12.985249634837812,31,-2.4165277777777776,-0.3167670326983849,0.2251526415348053,0.01904761977493763,0,17.76433669609106
112,0.16818329600027937,2.9091945642251185,13.491395117916168,27,-2.4341666666666666,-0.3167670326983849,0.22466424107551575,0.01953602023422718,0,17.764316535709916
113,0.16981566799950087,2.9352722376191744,15.899949485668342,41,-2.4341666666666666,-0.3167670326983849,0.22564104199409485,0.019291820004582405,0,17.764296031602015
114,0.17157264100023895,2.968636319755687,18.884462506578647,33,-2.4341666666666666,-0.3167670326983849,0.22466424107551575,0.019291820004582405,0,17.76427668394697
115,0.17331938300048932,3.005068363467971,20.717058221172692,15,-2.4341666666666666,-0.3175340230923277,0.22564104199409485,0.01953602023422718,0,17.764255650647872
116,0.17494467299911776,3.038432445604484,20.717058221172692,7,-2.4341666666666666,-0.3175340230923277,0.22588524222373962,0.01953602023422718,0,17.764234525225174
117,0.17666465600086667,3.069879051756139,18.06415775814131,13,-2.4341666666666666,-0.3175340230923277,0.22637364268302917,0.01953602023422718,0,17.76421467648973
118,0.17830109399983485,3.093655753968367,14.748032179352085,23,-2.4341666666666666,-0.3175340230923277,0.2271062433719635,0.02002442069351673,0,17.76419346956457
119,0.18005006699968362,3.123568379332137,16.545721308906245,21,-2.4341666666666666,-0.3175340230923277,0.22759464383125305,0.019780220463871956,0,17.764173100128943
120,0.1818125259997032,3.163835375014135,22.898719786165604,5,-2.4341666666666666,-0.3175340230923277,0.2280830442905426,0.020268620923161507,0,17.764151122302557
